0.0,8588.875,10236.3125
0.02,8588.8125,10236.875
0.04,8588.8125,10236.5625
0.06,8588.3125,10236.5
0.08,8588.6875,10237.3125
0.1,8588.625,10237.4375
0.12,8588.4375,10237.375
0.14,8588.4375,10237.9375
0.16,8588.5625,10238.5
0.18,8588.25,10238.125
0.2,8588.5625,10238.5
0.22,8588.4375,10238.6875
0.24,8588.75,10239.0625
0.26,8588.75,10239.25
0.28,8588.4375,10238.25
0.3,8588.5625,10238.875
0.32,8588.5,10238.4375
0.34,8588.5625,10238.625
0.36,8588.5625,10238.75
0.38,8588.4375,10238.5625
0.4,8588.3125,10238.3125
0.42,8588.0,10237.8125
0.44,8588.1875,10237.9375
0.46,8588.3125,10237.8125
0.48,8588.25,10238.0625
0.5,8588.125,10238.0625
0.52,8588.5625,10237.625
0.54,8588.625,10237.875
0.56,8588.625,10238.0
0.58,8588.3125,10238.125
0.6,8588.375,10237.875
0.62,8588.0625,10237.3125
0.64,8587.875,10237.75
0.66,8587.8125,10237.9375
0.68,8588.0625,10238.3125
0.7000000000000001,8588.0,10238.25
0.72,8588.0625,10238.625
0.74,8588.0625,10238.25
0.76,8588.0,10237.9375
0.78,8588.0625,10238.125
0.8,8588.0625,10238.6875
0.8200000000000001,8588.1875,10238.375
0.84,8588.25,10238.25
0.86,8588.125,10237.75
0.88,8587.6875,10237.8125
0.9,8587.8125,10237.75
0.92,8587.9375,10237.875
0.9400000000000001,8587.5,10238.125
0.96,8587.0625,10237.5625
0.98,8587.0,10237.25
1.0,8586.625,10236.8125
1.02,8586.375,10236.75
1.04,8586.0625,10236.8125
1.06,8585.625,10236.3125
1.08,8585.0625,10236.1875
1.1,8585.1875,10235.875
1.12,8584.9375,10236.0625
1.1400000000000001,8584.5625,10235.6875
1.16,8584.0625,10235.125
1.18,8583.8125,10234.4375
1.2,8583.5,10234.25
1.22,8582.5625,10233.25
1.24,8581.9375,10233.0
1.26,8582.0625,10232.625
1.28,8581.3125,10232.125
1.3,8580.9375,10231.6875
1.32,8580.6875,10231.25
1.34,8580.0,10230.6875
1.36,8579.9375,10230.1875
1.3800000000000001,8579.5,10230.6875
1.4000000000000001,8578.75,10229.875
1.42,8578.6875,10230.0625
1.44,8578.5,10229.875
1.46,8578.0625,10229.625
1.48,8577.8125,10229.375
1.5,8577.0625,10229.0
1.52,8577.5625,10229.25
1.54,8577.5,10229.4375
1.56,8577.375,10229.875
1.58,8577.5625,10229.8125
1.6,8577.3125,10229.6875
1.62,8577.1875,10229.8125
1.6400000000000001,8577.125,10229.875
1.6600000000000001,8577.1875,10230.3125
1.68,8577.1875,10230.8125
1.7,8576.8125,10230.625
1.72,8576.5625,10230.25
1.74,8576.75,10230.0625
1.76,8576.875,10230.625
1.78,8576.625,10230.875
1.8,8576.5,10230.75
1.82,8576.5,10230.75
1.84,8576.375,10230.6875
1.86,8576.0,10230.5
1.8800000000000001,8576.5,10231.3125
1.9000000000000001,8576.25,10231.1875
1.92,8576.25,10230.9375
1.94,8575.75,10231.0
1.96,8575.875,10230.9375
1.98,8576.0,10231.1875
2.0,8575.625,10231.4375
2.02,8575.625,10231.0
2.04,8575.125,10230.375
2.06,8575.375,10230.3125
2.08,8575.375,10230.3125
2.1,8575.25,10230.0
2.12,8574.75,10229.375
2.14,8574.5,10229.0625
2.16,8574.25,10228.8125
2.18,8574.5625,10229.1875
2.2,8574.4375,10229.3125
2.22,8574.375,10229.0625
2.24,8574.1875,10228.75
2.2600000000000002,8574.375,10229.375
2.2800000000000002,8574.4375,10229.5
2.3000000000000003,8574.375,10229.375
2.32,8574.75,10229.4375
2.34,8574.25,10229.5
2.36,8574.1875,10229.4375
2.38,8573.8125,10229.1875
2.4,8574.1875,10229.6875
2.42,8574.1875,10229.75
2.44,8574.4375,10230.0
2.46,8574.4375,10230.0625
2.48,8574.4375,10230.1875
2.5,8574.625,10230.6875
2.52,8574.5,10230.6875
2.54,8574.625,10230.5625
2.56,8574.625,10230.5
2.58,8574.3125,10230.625
2.6,8574.625,10230.8125
2.62,8574.9375,10231.6875
2.64,8575.875,10232.1875
2.66,8575.625,10232.0625
2.68,8575.875,10232.1875
2.7,8575.9375,10232.0625
2.72,8576.0625,10232.5
2.74,8575.75,10232.3125
2.7600000000000002,8576.125,10232.4375
2.7800000000000002,8576.0625,10232.75
2.8000000000000003,8576.25,10232.8125
2.82,8576.3125,10233.375
2.84,8576.5,10233.625
2.86,8576.6875,10233.8125
2.88,8576.5625,10233.5
2.9,8576.0,10232.875
2.92,8576.0,10232.375
2.94,8576.0,10232.3125
2.96,8575.875,10232.3125
2.98,8575.75,10231.6875
3.0,8575.9375,10231.25
3.02,8575.5,10230.75
3.04,8575.9375,10231.1875
3.06,8575.75,10230.4375
3.08,8575.4375,10230.625
3.1,8575.0625,10229.75
3.12,8574.8125,10229.6875
3.14,8574.6875,10229.25
3.16,8574.5,10229.375
3.18,8574.375,10229.125
3.2,8573.875,10228.8125
3.22,8574.0625,10228.875
3.24,8573.6875,10228.625
3.2600000000000002,8573.375,10228.0
3.2800000000000002,8573.4375,10228.4375
3.3000000000000003,8573.25,10228.25
3.3200000000000003,8573.125,10228.5
3.34,8573.0625,10228.3125
3.36,8573.125,10228.25
3.38,8572.625,10227.625
3.4,8572.6875,10228.0
3.42,8572.5625,10228.125
3.44,8572.3125,10228.0
3.46,8572.0,10227.875
3.48,8572.125,10227.875
3.5,8572.0,10227.8125
3.52,8571.75,10227.75
3.54,8572.0625,10227.9375
3.56,8571.8125,10228.1875
3.58,8571.875,10228.0
3.6,8571.625,10227.875
3.62,8571.6875,10228.5
3.64,8571.6875,10228.1875
3.66,8571.25,10228.6875
3.68,8571.875,10228.625
3.7,8571.8125,10228.8125
3.72,8571.625,10229.0
3.74,8571.625,10228.5
3.7600000000000002,8571.1875,10228.0
3.7800000000000002,8571.125,10227.6875
3.8000000000000003,8571.1875,10227.4375
3.8200000000000003,8570.75,10227.3125
3.84,8570.75,10227.125
3.86,8570.375,10226.375
3.88,8570.375,10226.0
3.9,8570.1875,10225.8125
3.92,8569.8125,10225.8125
3.94,8570.1875,10225.5
3.96,8570.0,10225.4375
3.98,8569.6875,10225.3125
4.0,8569.75,10225.5625
4.0200000000000005,8569.6875,10225.375
4.04,8569.5,10224.9375
4.0600000000000005,8569.875,10224.75
4.08,8569.4375,10225.1875
4.1,8569.25,10224.9375
4.12,8569.5,10225.625
4.14,8569.0,10225.0
4.16,8569.4375,10225.0
4.18,8569.375,10225.125
4.2,8569.375,10225.25
4.22,8569.0625,10225.6875
4.24,8569.5625,10225.9375
4.26,8569.5,10226.0
4.28,8569.25,10225.875
4.3,8569.75,10225.8125
4.32,8569.5,10226.1875
4.34,8569.3125,10226.3125
4.36,8569.625,10226.5
4.38,8569.625,10226.5
4.4,8569.625,10226.8125
4.42,8569.5625,10226.625
4.44,8570.0,10227.0625
4.46,8569.8125,10227.4375
4.48,8569.75,10227.375
4.5,8570.0625,10227.6875
4.5200000000000005,8570.4375,10228.1875
4.54,8570.5625,10228.1875
4.5600000000000005,8570.3125,10228.25
4.58,8570.125,10228.3125
4.6000000000000005,8570.4375,10228.5
4.62,8570.5625,10228.3125
4.64,8570.3125,10227.8125
4.66,8570.4375,10227.875
4.68,8570.125,10227.6875
4.7,8570.3125,10227.125
4.72,8570.3125,10227.1875
4.74,8570.25,10227.0
4.76,8570.25,10226.6875
4.78,8570.25,10226.75
4.8,8569.75,10226.25
4.82,8569.9375,10226.4375
4.84,8569.875,10226.375
4.86,8569.5,10226.0
4.88,8569.9375,10226.5
4.9,8569.8125,10226.4375
4.92,8570.25,10226.3125
4.94,8569.8125,10226.125
4.96,8569.6875,10226.3125
4.98,8569.875,10226.5
5.0,8569.8125,10226.6875
5.0200000000000005,8569.9375,10226.3125
5.04,8569.5625,10226.125
5.0600000000000005,8569.5625,10226.0625
5.08,8569.5625,10226.3125
5.1000000000000005,8569.75,10226.3125
5.12,8569.1875,10226.5
5.14,8569.5,10226.1875
5.16,8568.9375,10225.9375
5.18,8568.875,10225.875
5.2,8569.125,10226.25
5.22,8568.9375,10226.375
5.24,8569.25,10226.1875
5.26,8568.8125,10226.0625
5.28,8568.75,10226.0
5.3,8569.25,10225.8125
5.32,8568.625,10226.0625
5.34,8568.8125,10226.25
5.36,8569.1875,10226.375
5.38,8569.125,10226.375
5.4,8568.4375,10226.25
5.42,8568.875,10226.625
5.44,8568.75,10226.9375
5.46,8568.8125,10226.3125
5.48,8568.8125,10226.6875
5.5,8568.125,10226.0
5.5200000000000005,8567.625,10225.625
5.54,8567.5,10224.9375
5.5600000000000005,8567.6875,10224.75
5.58,8567.4375,10224.5
5.6000000000000005,8567.5625,10224.25
5.62,8567.25,10223.875
5.64,8567.125,10223.875
5.66,8567.0625,10223.8125
5.68,8567.3125,10223.5625
5.7,8566.875,10223.1875
5.72,8566.625,10223.1875
5.74,8565.9375,10223.375
5.76,8566.25,10222.75
5.78,8565.875,10222.875
5.8,8566.0625,10223.5
5.82,8566.125,10223.4375
5.84,8566.0625,10223.0
5.86,8565.625,10223.1875
5.88,8565.125,10222.6875
5.9,8564.5625,10222.1875
5.92,8564.4375,10221.75
5.94,8563.5,10220.9375
5.96,8562.875,10220.125
5.98,8562.8125,10220.625
6.0,8562.9375,10220.9375
6.0200000000000005,8562.1875,10220.8125
6.04,8562.625,10220.6875
6.0600000000000005,8561.6875,10219.875
6.08,8561.4375,10219.875
6.1000000000000005,8561.625,10219.75
6.12,8561.6875,10220.3125
6.140000000000001,8561.5,10219.5
6.16,8561.5,10220.0625
6.18,8561.25,10219.875
6.2,8561.3125,10220.0625
6.22,8561.4375,10220.375
6.24,8561.375,10220.5625
6.26,8560.9375,10220.375
6.28,8560.75,10220.625
6.3,8560.4375,10220.8125
6.32,8560.5625,10221.0
6.34,8560.375,10220.8125
6.36,8560.5625,10220.875
6.38,8560.0625,10220.5
6.4,8560.25,10220.4375
6.42,8560.0625,10220.4375
6.44,8560.0,10220.5
6.46,8559.8125,10220.1875
6.48,8560.1875,10220.0625
6.5,8559.875,10220.0625
6.5200000000000005,8560.0625,10219.75
6.54,8559.8125,10220.125
6.5600000000000005,8559.6875,10220.0
6.58,8559.5625,10220.125
6.6000000000000005,8559.8125,10220.25
6.62,8559.75,10220.0
6.640000000000001,8559.6875,10220.375
6.66,8559.6875,10220.125
6.68,8559.6875,10220.125
6.7,8560.0625,10220.375
6.72,8560.125,10221.125
6.74,8560.125,10221.375
6.76,8560.3125,10221.75
6.78,8560.5625,10222.3125
6.8,8561.3125,10222.75
6.82,8561.3125,10223.25
6.84,8562.0,10223.875
6.86,8562.3125,10224.375
6.88,8562.75,10224.8125
6.9,8563.3125,10225.625
6.92,8563.625,10226.1875
6.94,8563.4375,10226.25
6.96,8564.25,10227.5
6.98,8564.9375,10227.875
7.0,8565.5,10228.625
7.0200000000000005,8565.5625,10229.125
7.04,8566.3125,10229.4375
7.0600000000000005,8566.375,10230.0625
7.08,8566.9375,10230.8125
7.1000000000000005,8567.125,10231.5625
7.12,8567.625,10231.6875
7.140000000000001,8568.25,10232.5625
7.16,8568.8125,10233.1875
7.18,8569.375,10234.0625
7.2,8569.25,10234.3125
7.22,8569.9375,10233.9375
7.24,8569.4375,10234.0625
7.26,8570.125,10234.1875
7.28,8570.375,10234.375
7.3,8570.5,10234.4375
7.32,8570.4375,10234.125
7.34,8571.0,10234.4375
7.36,8571.125,10234.5
7.38,8571.3125,10234.75
7.4,8571.4375,10235.125
7.42,8571.8125,10235.125
7.44,8571.8125,10235.25
7.46,8571.9375,10235.5625
7.48,8571.6875,10235.3125
7.5,8571.875,10235.4375
7.5200000000000005,8571.6875,10235.4375
7.54,8571.9375,10235.625
7.5600000000000005,8572.5,10235.5
7.58,8572.25,10235.875
7.6000000000000005,8571.9375,10235.8125
7.62,8572.5625,10236.0
7.640000000000001,8572.5,10236.5
7.66,8572.4375,10235.9375
7.68,8572.3125,10236.25
7.7,8572.875,10236.5625
7.72,8573.0625,10236.625
7.74,8572.75,10236.5625
7.76,8572.9375,10236.5
7.78,8572.5625,10236.4375
7.8,8572.8125,10236.9375
7.82,8572.5625,10236.625
7.84,8572.4375,10236.75
7.86,8572.75,10236.875
7.88,8572.625,10236.8125
7.9,8572.75,10236.9375
7.92,8572.625,10237.5625
7.94,8572.875,10237.375
7.96,8572.6875,10237.8125
7.98,8572.5625,10237.625
8.0,8572.5,10237.875
8.02,8572.5,10238.0625
8.040000000000001,8572.5625,10237.5
8.06,8572.0625,10236.8125
8.08,8572.0625,10236.8125
8.1,8571.9375,10236.6875
8.120000000000001,8571.875,10236.75
8.14,8571.875,10236.375
8.16,8572.0,10236.0
8.18,8571.75,10235.625
8.2,8572.1875,10235.875
8.22,8571.875,10235.9375
8.24,8571.8125,10235.875
8.26,8571.75,10236.125
8.28,8571.75,10235.6875
8.3,8571.75,10235.875
8.32,8571.625,10235.6875
8.34,8571.625,10235.875
8.36,8571.5,10235.4375
8.38,8571.5625,10235.6875
8.4,8571.25,10235.4375
8.42,8571.25,10235.375
8.44,8571.3125,10235.9375
8.46,8571.25,10235.8125
8.48,8571.25,10235.375
8.5,8571.0625,10235.9375
8.52,8571.6875,10236.1875
8.540000000000001,8571.75,10235.9375
8.56,8571.3125,10236.125
8.58,8571.0,10235.8125
8.6,8571.125,10236.1875
8.620000000000001,8571.125,10236.125
8.64,8571.0625,10236.3125
8.66,8571.4375,10236.875
8.68,8571.5625,10237.0
8.700000000000001,8571.625,10237.0625
8.72,8571.75,10236.9375
8.74,8571.125,10237.375
8.76,8571.375,10237.375
8.78,8571.5625,10237.25
8.8,8571.25,10237.625
8.82,8571.5,10237.625
8.84,8571.375,10237.875
8.86,8571.5625,10237.625
8.88,8571.6875,10237.6875
8.9,8571.625,10236.875
8.92,8571.3125,10236.6875
8.94,8571.0625,10236.6875
8.96,8571.0625,10236.3125
8.98,8571.0625,10235.9375
9.0,8570.9375,10235.125
9.02,8570.1875,10234.6875
9.040000000000001,8570.4375,10234.5
9.06,8570.4375,10234.25
9.08,8570.4375,10234.125
9.1,8570.125,10233.5625
9.120000000000001,8570.125,10233.1875
9.14,8569.9375,10232.875
9.16,8569.6875,10232.6875
9.18,8569.5,10232.0625
9.200000000000001,8569.4375,10231.8125
9.22,8569.0,10231.625
9.24,8569.0625,10231.4375
9.26,8569.0625,10231.3125
9.28,8569.0,10231.1875
9.3,8569.0,10231.1875
9.32,8568.5,10230.8125
9.34,8568.5625,10231.0
9.36,8569.0,10231.25
9.38,8568.875,10231.4375
9.4,8568.4375,10231.1875
9.42,8568.4375,10231.375
9.44,8568.375,10231.3125
9.46,8568.375,10231.5
9.48,8568.625,10231.625
9.5,8568.8125,10231.5
9.52,8569.125,10232.0625
9.540000000000001,8569.125,10232.5625
9.56,8569.125,10232.8125
9.58,8569.3125,10233.1875
9.6,8569.3125,10233.9375
9.620000000000001,8569.375,10234.125
9.64,8569.6875,10234.75
9.66,8570.625,10234.9375
9.68,8570.8125,10235.6875
9.700000000000001,8571.125,10236.0625
9.72,8571.6875,10236.3125
9.74,8571.375,10236.125
9.76,8571.25,10235.6875
9.78,8571.25,10235.875
9.8,8571.5,10236.0
9.82,8571.5625,10235.4375
9.84,8571.625,10234.75
9.86,8571.6875,10235.0
9.88,8572.0625,10235.0625
9.9,8572.125,10234.6875
9.92,8572.5,10235.0
9.94,8572.4375,10234.25
9.96,8572.5625,10234.375
9.98,8572.6875,10234.8125
10.0,8572.5625,10234.375
10.02,8572.4375,10233.9375
10.040000000000001,8572.125,10234.0625
10.06,8572.375,10233.8125
10.08,8572.375,10233.875
10.1,8572.0625,10233.625
10.120000000000001,8572.3125,10233.4375
10.14,8572.25,10234.0625
10.16,8572.5625,10233.5
10.18,8573.0,10234.1875
10.200000000000001,8572.75,10233.9375
10.22,8573.125,10234.5
10.24,8573.25,10234.3125
10.26,8573.0,10234.5
10.28,8573.625,10234.5625
10.3,8573.3125,10234.3125
10.32,8573.5,10234.4375
10.34,8573.4375,10234.75
10.36,8573.5625,10234.9375
10.38,8573.8125,10235.0
10.4,8573.375,10234.75
10.42,8573.75,10235.3125
10.44,8573.8125,10235.125
10.46,8573.9375,10235.6875
10.48,8573.8125,10235.8125
10.5,8574.1875,10236.125
10.52,8573.75,10235.3125
10.540000000000001,8573.875,10235.4375
10.56,8573.875,10235.875
10.58,8574.0625,10235.6875
10.6,8573.5625,10234.9375
10.620000000000001,8573.4375,10234.3125
10.64,8573.375,10234.25
10.66,8573.125,10234.0
10.68,8573.0625,10233.0625
10.700000000000001,8572.9375,10232.9375
10.72,8572.4375,10232.25
10.74,8572.5,10232.125
10.76,8572.75,10231.9375
10.78,8572.375,10231.5
10.8,8571.75,10231.0625
10.82,8572.1875,10231.3125
10.84,8571.625,10230.9375
10.86,8571.75,10230.9375
10.88,8571.5625,10230.5625
10.9,8571.1875,10230.3125
10.92,8571.9375,10230.625
10.94,8571.625,10230.5
10.96,8571.6875,10230.5625
10.98,8571.5625,10230.4375
11.0,8571.4375,10230.3125
11.02,8571.25,10230.25
11.040000000000001,8571.3125,10230.1875
11.06,8571.125,10230.125
11.08,8571.0625,10230.125
11.1,8571.3125,10230.5625
11.120000000000001,8571.625,10230.5625
11.14,8571.5,10230.8125
11.16,8571.75,10230.625
11.18,8571.4375,10230.75
11.200000000000001,8571.875,10231.1875
11.22,8572.0,10231.1875
11.24,8571.6875,10231.0625
11.26,8571.5625,10231.0
11.28,8571.75,10231.0
11.3,8571.875,10231.125
11.32,8571.5625,10230.8125
11.34,8571.3125,10231.125
11.36,8571.9375,10231.0625
11.38,8571.875,10231.375
11.4,8571.625,10231.3125
11.42,8571.75,10231.25
11.44,8571.4375,10231.625
11.46,8571.5,10231.125
11.48,8571.5625,10230.8125
11.5,8571.0625,10230.25
11.52,8570.75,10229.4375
11.540000000000001,8570.5,10228.8125
11.56,8569.875,10228.3125
11.58,8569.9375,10228.0
11.6,8569.5,10227.125
11.620000000000001,8569.4375,10227.0625
11.64,8569.1875,10226.75
11.66,8568.8125,10226.75
11.68,8568.375,10226.375
11.700000000000001,8568.5625,10226.125
11.72,8568.4375,10225.6875
11.74,8568.0625,10226.0625
11.76,8568.1875,10225.75
11.78,8567.75,10225.5
11.8,8567.9375,10225.875
11.82,8568.0,10226.125
11.84,8567.75,10225.6875
11.86,8567.8125,10225.9375
11.88,8568.0,10226.3125
11.9,8568.0,10226.5625
11.92,8567.75,10226.625
11.94,8567.5625,10226.875
11.96,8568.3125,10227.5625
11.98,8569.0,10228.3125
12.0,8568.75,10228.25
12.02,8568.6875,10228.9375
12.040000000000001,8569.25,10229.375
12.06,8569.5625,10229.6875
12.08,8569.5625,10229.9375
12.1,8569.5625,10230.0625
12.120000000000001,8570.3125,10231.0625
12.14,8570.4375,10231.25
12.16,8570.375,10231.5625
12.18,8570.5,10231.5625
12.200000000000001,8571.0625,10232.1875
12.22,8571.375,10232.3125
12.24,8571.6875,10233.0625
12.26,8571.6875,10233.5
12.280000000000001,8572.25,10233.9375
12.3,8572.5625,10234.3125
12.32,8572.5625,10234.3125
12.34,8573.125,10235.0
12.36,8573.3125,10234.75
12.38,8573.625,10234.8125
12.4,8573.5,10234.4375
12.42,8573.4375,10234.25
12.44,8573.875,10234.4375
12.46,8573.4375,10234.1875
12.48,8573.5625,10234.0
12.5,8573.875,10234.125
12.52,8573.875,10234.125
12.540000000000001,8573.9375,10234.3125
12.56,8574.3125,10234.4375
12.58,8574.1875,10234.5
12.6,8574.375,10234.375
12.620000000000001,8574.4375,10234.5
12.64,8574.4375,10234.5625
12.66,8574.5625,10234.3125
12.68,8574.625,10234.875
12.700000000000001,8574.75,10234.8125
12.72,8574.5,10234.875
12.74,8574.625,10234.9375
12.76,8575.125,10235.0625
12.780000000000001,8575.25,10235.125
12.8,8574.9375,10234.75
12.82,8574.8125,10234.8125
12.84,8575.25,10235.1875
12.86,8574.875,10235.1875
12.88,8575.0625,10234.5625
12.9,8574.625,10234.9375
12.92,8574.5,10234.5
12.94,8575.0,10235.375
12.96,8574.75,10235.3125
12.98,8575.0,10235.375
13.0,8574.875,10235.625
13.02,8575.0,10235.9375
13.040000000000001,8575.3125,10236.0
13.06,8575.1875,10236.0
13.08,8575.5,10236.375
13.1,8575.375,10236.3125
13.120000000000001,8575.4375,10236.75
13.14,8575.625,10236.5625
13.16,8575.625,10237.0625
13.18,8575.625,10237.25
13.200000000000001,8575.9375,10236.75
13.22,8575.375,10235.6875
13.24,8575.0625,10235.8125
13.26,8575.0625,10235.9375
13.280000000000001,8575.125,10236.0
13.3,8574.625,10235.3125
13.32,8574.875,10234.875
13.34,8574.875,10234.4375
13.36,8574.6875,10234.0
13.38,8575.1875,10234.5625
13.4,8574.6875,10234.0625
13.42,8574.625,10233.875
13.44,8574.625,10234.1875
13.46,8574.5625,10233.875
13.48,8574.6875,10233.9375
13.5,8574.8125,10233.9375
13.52,8574.375,10233.8125
13.540000000000001,8574.0625,10233.8125
13.56,8574.3125,10233.875
13.58,8574.0625,10233.875
13.6,8574.125,10233.8125
13.620000000000001,8573.8125,10233.9375
13.64,8573.8125,10233.875
13.66,8573.75,10234.375
13.68,8574.375,10234.5625
13.700000000000001,8574.125,10234.875
13.72,8573.875,10235.0
13.74,8574.125,10235.0625
13.76,8574.25,10235.25
13.780000000000001,8574.375,10235.5
13.8,8574.5,10235.3125
13.82,8574.5,10235.6875
13.84,8574.8125,10236.3125
13.86,8575.0625,10236.3125
13.88,8574.9375,10236.875
13.9,8574.4375,10236.375
13.92,8574.875,10236.8125
13.94,8575.1875,10237.6875
13.96,8575.375,10237.125
13.98,8575.5625,10237.8125
14.0,8575.5625,10238.3125
14.02,8575.8125,10238.625
14.040000000000001,8575.8125,10238.4375
14.06,8575.5625,10237.75
14.08,8575.4375,10237.875
14.1,8575.4375,10238.0
14.120000000000001,8575.375,10237.75
14.14,8575.375,10237.8125
14.16,8575.3125,10237.125
14.18,8575.1875,10237.0625
14.200000000000001,8575.25,10235.875
14.22,8575.0625,10236.5625
14.24,8575.1875,10236.1875
14.26,8574.5625,10235.4375
14.280000000000001,8574.6875,10235.5625
14.3,8574.75,10235.4375
14.32,8574.5625,10235.375
14.34,8574.5,10235.25
14.36,8574.5,10235.3125
14.38,8574.625,10235.5625
14.4,8574.5625,10236.0
14.42,8574.3125,10235.25
14.44,8574.4375,10234.625
14.46,8573.875,10234.6875
14.48,8573.875,10235.0
14.5,8574.0625,10235.3125
14.52,8573.5625,10234.875
14.540000000000001,8573.5625,10235.0
14.56,8573.625,10234.6875
14.58,8573.5,10234.875
14.6,8573.5,10235.5
14.620000000000001,8573.375,10235.6875
14.64,8574.0625,10236.125
14.66,8573.75,10236.125
14.68,8573.6875,10236.5
14.700000000000001,8574.1875,10236.875
14.72,8574.375,10237.3125
14.74,8574.125,10237.6875
14.76,8574.5625,10237.6875
14.780000000000001,8574.8125,10238.0625
14.8,8574.75,10238.875
14.82,8575.1875,10239.5
14.84,8575.5625,10240.375
14.86,8575.75,10240.125
14.88,8575.6875,10240.9375
14.9,8575.9375,10241.0625
14.92,8576.25,10240.6875
14.94,8576.0625,10241.125
14.96,8576.25,10240.375
14.98,8576.0625,10240.5
15.0,8576.375,10240.6875
15.02,8576.25,10240.4375
15.040000000000001,8576.5,10240.9375
15.06,8576.5625,10240.875
15.08,8576.9375,10241.25
15.1,8577.1875,10241.0625
15.120000000000001,8577.3125,10241.1875
15.14,8577.5625,10241.5
15.16,8577.9375,10241.625
15.18,8578.125,10241.8125
15.200000000000001,8578.0,10241.8125
15.22,8578.125,10241.625
15.24,8578.625,10242.0625
15.26,8578.5625,10242.4375
15.280000000000001,8578.5625,10242.875
15.3,8578.625,10242.1875
15.32,8578.3125,10242.4375
15.34,8578.75,10242.5625
15.36,8579.1875,10243.25
15.38,8579.0,10243.1875
15.4,8579.25,10243.5625
15.42,8579.0625,10243.5
15.44,8579.3125,10243.75
15.46,8579.6875,10244.25
15.48,8579.8125,10244.4375
15.5,8579.9375,10244.4375
15.52,8580.125,10244.625
15.540000000000001,8580.375,10245.4375
15.56,8580.5,10245.75
15.58,8580.9375,10245.625
15.6,8580.5,10245.5625
15.620000000000001,8581.0,10246.125
15.64,8581.0,10246.3125
15.66,8581.3125,10246.5625
15.68,8581.0625,10246.8125
15.700000000000001,8581.0625,10246.6875
15.72,8581.6875,10247.3125
15.74,8581.875,10247.5625
15.76,8581.9375,10247.75
15.780000000000001,8581.6875,10247.375
15.8,8582.0,10247.1875
15.82,8581.9375,10247.3125
15.84,8582.375,10247.625
15.860000000000001,8582.3125,10246.875
15.88,8582.0625,10246.8125
15.9,8581.875,10246.375
15.92,8581.9375,10246.375
15.94,8582.125,10246.4375
15.96,8581.75,10245.8125
15.98,8581.5,10245.6875
16.0,8581.75,10245.75
16.02,8581.6875,10245.5625
16.04,8581.3125,10245.1875
16.06,8581.125,10244.8125
16.080000000000002,8581.625,10244.9375
16.1,8581.5,10245.125
16.12,8581.375,10245.25
16.14,8581.125,10245.125
16.16,8581.4375,10244.875
16.18,8581.0625,10245.0625
16.2,8581.25,10245.375
16.22,8581.3125,10245.5
16.240000000000002,8581.375,10245.75
16.26,8581.5625,10245.6875
16.28,8581.5,10245.75
16.3,8581.5625,10246.0
16.32,8581.75,10246.0625
16.34,8581.5625,10246.375
16.36,8581.3125,10246.5
16.38,8581.625,10246.625
16.4,8582.0625,10247.125
16.42,8581.6875,10247.25
16.44,8581.8125,10247.875
16.46,8582.0625,10247.5
16.48,8582.1875,10247.5625
16.5,8582.6875,10248.0625
16.52,8582.5625,10248.25
16.54,8582.6875,10248.5625
16.56,8582.75,10248.9375
16.580000000000002,8582.375,10248.875
16.6,8582.8125,10248.9375
16.62,8582.625,10249.25
16.64,8582.75,10249.0
16.66,8582.375,10249.0625
16.68,8582.0625,10248.5625
16.7,8582.1875,10248.4375
16.72,8582.25,10248.25
16.740000000000002,8581.9375,10248.1875
16.76,8582.25,10248.0625
16.78,8581.9375,10247.8125
16.8,8582.0625,10248.0625
16.82,8581.8125,10247.875
16.84,8582.0,10247.875
16.86,8582.0,10247.6875
16.88,8582.1875,10247.875
16.9,8582.0,10248.375
16.92,8582.0625,10248.5625
16.94,8582.0,10248.6875
16.96,8581.875,10248.75
16.98,8582.125,10249.0625
17.0,8581.875,10248.8125
17.02,8582.25,10249.5625
17.04,8582.1875,10249.9375
17.06,8582.5,10250.125
17.080000000000002,8582.6875,10250.25
17.1,8582.6875,10250.9375
17.12,8582.9375,10251.25
17.14,8583.0625,10252.0
17.16,8583.1875,10252.0625
17.18,8583.3125,10252.5625
17.2,8583.375,10252.5
17.22,8583.5625,10252.5625
17.240000000000002,8583.8125,10253.125
17.26,8584.0625,10253.8125
17.28,8584.1875,10254.375
17.3,8584.4375,10254.5
17.32,8584.75,10254.6875
17.34,8584.9375,10255.5625
17.36,8585.4375,10256.1875
17.38,8585.5,10256.5625
17.400000000000002,8585.8125,10256.6875
17.42,8586.125,10257.125
17.44,8586.5,10257.5
17.46,8586.5,10257.9375
17.48,8586.9375,10258.625
17.5,8587.125,10258.8125
17.52,8587.25,10259.1875
17.54,8587.4375,10258.75
17.56,8587.5,10259.25
17.580000000000002,8587.5,10259.125
17.6,8587.5,10259.0625
17.62,8587.4375,10259.1875
17.64,8587.4375,10259.0625
17.66,8587.0625,10258.75
17.68,8587.3125,10258.5
17.7,8587.6875,10258.9375
17.72,8587.625,10258.5625
17.740000000000002,8587.75,10258.875
17.76,8588.0625,10259.25
17.78,8588.375,10259.75
17.8,8588.6875,10259.5625
17.82,8588.5625,10260.0
17.84,8588.3125,10260.1875
17.86,8588.875,10260.375
17.88,8588.5625,10260.3125
17.900000000000002,8588.3125,10260.375
17.92,8588.5,10260.75
17.94,8588.625,10260.6875
17.96,8588.625,10261.5
17.98,8588.6875,10261.4375
18.0,8589.0625,10261.625
18.02,8589.125,10261.625
18.04,8589.125,10261.9375
18.06,8589.0,10262.0625
18.080000000000002,8589.5,10262.5625
18.1,8589.5625,10262.75
18.12,8589.0625,10262.6875
18.14,8589.0625,10262.5625
18.16,8589.75,10262.875
18.18,8589.3125,10262.75
18.2,8589.25,10263.0
18.22,8589.75,10263.5625
18.240000000000002,8589.625,10263.625
18.26,8589.625,10263.9375
18.28,8589.875,10264.0625
18.3,8589.125,10264.125
18.32,8589.75,10264.8125
18.34,8589.875,10264.8125
18.36,8590.125,10264.9375
18.38,8590.0,10265.5625
18.400000000000002,8590.375,10265.9375
18.42,8590.3125,10266.0625
18.44,8590.5625,10265.8125
18.46,8589.9375,10266.0
18.48,8589.8125,10265.625
18.5,8590.0625,10265.4375
18.52,8590.0625,10265.4375
18.54,8590.0625,10265.0625
18.56,8590.1875,10265.3125
18.580000000000002,8589.875,10265.125
18.6,8590.375,10265.0625
18.62,8589.6875,10264.6875
18.64,8590.1875,10265.0625
18.66,8590.0625,10265.0625
18.68,8590.3125,10265.25
18.7,8590.0,10264.8125
18.72,8589.6875,10264.9375
18.740000000000002,8589.625,10265.1875
18.76,8589.5625,10265.5
18.78,8589.625,10265.625
18.8,8589.6875,10265.8125
18.82,8590.125,10265.8125
18.84,8590.0,10266.0625
18.86,8590.375,10266.125
18.88,8590.5,10266.75
18.900000000000002,8590.0,10266.6875
18.92,8590.375,10267.375
18.94,8590.25,10267.5625
18.96,8590.4375,10267.625
18.98,8590.25,10267.5
19.0,8590.8125,10268.0625
19.02,8590.375,10268.25
19.04,8590.5,10268.3125
19.06,8590.5,10268.5625
19.080000000000002,8590.9375,10268.625
19.1,8590.9375,10268.875
19.12,8590.875,10269.4375
19.14,8591.25,10269.5625
19.16,8591.125,10270.0
19.18,8591.375,10270.125
19.2,8591.25,10270.6875
19.22,8591.3125,10270.9375
19.240000000000002,8591.625,10271.0
19.26,8591.8125,10271.0625
19.28,8591.75,10271.1875
19.3,8592.1875,10271.625
19.32,8592.5625,10272.375
19.34,8592.5625,10272.5625
19.36,8592.0,10272.625
19.38,8592.1875,10272.375
19.400000000000002,8592.5,10271.9375
19.42,8591.9375,10271.9375
19.44,8592.0625,10271.625
19.46,8592.0,10271.4375
19.48,8592.0625,10271.4375
19.5,8592.3125,10271.0
19.52,8592.375,10271.375
19.54,8592.125,10270.875
19.56,8592.25,10270.875
19.580000000000002,8592.25,10271.4375
19.6,8592.375,10271.0625
19.62,8592.375,10270.75
19.64,8592.5,10270.75
19.66,8592.1875,10270.5
19.68,8592.0,10270.9375
19.7,8592.125,10271.125
19.72,8592.375,10270.8125
19.740000000000002,8592.25,10271.125
19.76,8591.8125,10270.875
19.78,8592.1875,10271.0
19.8,8592.1875,10271.1875
19.82,8592.125,10271.125
19.84,8592.25,10271.4375
19.86,8592.1875,10271.4375
19.88,8592.6875,10271.875
19.900000000000002,8593.0,10271.875
19.92,8592.3125,10271.875
19.94,8592.6875,10272.0625
19.96,8592.9375,10272.1875
19.98,8592.625,10272.0
20.0,8592.4375,10272.0
20.02,8592.9375,10272.5625
20.04,8592.9375,10272.75
20.06,8593.0,10272.1875
20.080000000000002,8593.0625,10273.0
20.1,8593.1875,10273.25
20.12,8593.3125,10273.25
20.14,8593.8125,10273.0
20.16,8593.125,10273.0625
20.18,8593.375,10273.125
20.2,8593.25,10272.8125
20.22,8593.1875,10273.25
20.240000000000002,8593.5625,10273.5625
20.26,8593.4375,10273.625
20.28,8593.375,10272.8125
20.3,8593.125,10272.875
20.32,8592.9375,10272.375
20.34,8592.5625,10272.1875
20.36,8592.5625,10271.5625
20.38,8592.25,10271.4375
20.400000000000002,8592.25,10270.4375
20.42,8591.6875,10269.4375
20.44,8591.5,10269.0625
20.46,8591.1875,10268.875
20.48,8591.125,10268.625
20.5,8590.875,10268.375
20.52,8590.3125,10267.4375
20.54,8590.0625,10267.125
20.56,8589.875,10266.875
20.580000000000002,8589.75,10266.1875
20.6,8589.375,10265.6875
20.62,8589.0,10265.625
20.64,8588.9375,10265.125
20.66,8588.25,10264.8125
20.68,8588.125,10264.25
20.7,8587.9375,10264.625
20.72,8587.75,10264.375
20.740000000000002,8587.4375,10264.0625
20.76,8587.625,10264.1875
20.78,8587.3125,10264.125
20.8,8587.0,10264.3125
20.82,8586.75,10264.125
20.84,8586.75,10263.9375
20.86,8586.3125,10264.0625
20.88,8585.9375,10264.1875
20.900000000000002,8586.0,10263.9375
20.92,8586.0,10264.1875
20.94,8585.875,10264.4375
20.96,8586.0,10264.5625
20.98,8585.6875,10264.5
21.0,8585.5625,10264.4375
21.02,8585.1875,10264.4375
21.04,8585.0625,10264.75
21.06,8585.1875,10264.75
21.080000000000002,8585.0625,10264.75
21.1,8584.5625,10264.5625
21.12,8584.25,10264.875
21.14,8584.125,10264.8125
21.16,8584.0,10265.25
21.18,8583.5625,10264.5625
21.2,8583.0,10264.25
21.22,8582.5625,10263.5
21.240000000000002,8582.125,10263.125
21.26,8582.375,10263.0625
21.28,8582.0,10262.875
21.3,8581.75,10262.0
21.32,8580.75,10261.3125
21.34,8580.6875,10261.0625
21.36,8580.8125,10260.5625
21.38,8580.5625,10260.8125
21.400000000000002,8580.1875,10260.5625
21.42,8579.75,10259.875
21.44,8579.8125,10260.0625
21.46,8579.5,10260.25
21.48,8579.1875,10260.25
21.5,8578.6875,10259.25
21.52,8578.6875,10259.3125
21.54,8578.5,10259.1875
21.56,8578.5625,10259.25
21.580000000000002,8578.5,10259.3125
21.6,8578.25,10259.125
21.62,8578.3125,10259.125
21.64,8578.375,10259.25
21.66,8577.875,10259.1875
21.68,8577.8125,10259.1875
21.7,8578.0625,10259.3125
21.72,8578.125,10259.4375
21.740000000000002,8577.9375,10259.125
21.76,8577.75,10259.25
21.78,8577.8125,10259.75
21.8,8578.0,10259.8125
21.82,8578.0625,10260.375
21.84,8577.75,10260.8125
21.86,8577.9375,10260.8125
21.88,8578.375,10261.375
21.900000000000002,8578.6875,10262.3125
21.92,8579.0,10262.5
21.94,8579.1875,10263.4375
21.96,8579.625,10263.5625
21.98,8579.6875,10264.0625
22.0,8580.125,10264.0625
22.02,8580.3125,10264.6875
22.04,8580.8125,10265.1875
22.06,8581.0,10265.8125
22.080000000000002,8580.8125,10265.6875
22.1,8581.0,10265.4375
22.12,8581.375,10265.25
22.14,8581.6875,10265.375
22.16,8581.5625,10265.3125
22.18,8581.875,10265.1875
22.2,8581.9375,10264.9375
22.22,8581.875,10264.9375
22.240000000000002,8581.6875,10264.625
22.26,8581.9375,10264.3125
22.28,8581.875,10264.6875
22.3,8582.0,10264.5625
22.32,8582.625,10264.6875
22.34,8582.8125,10265.25
22.36,8582.9375,10265.0625
22.38,8582.875,10264.875
22.400000000000002,8582.625,10264.8125
22.42,8583.125,10265.125
22.44,8583.0,10265.0
22.46,8583.1875,10265.375
22.48,8583.3125,10265.5
22.5,8583.6875,10265.375
22.52,8583.375,10265.75
22.54,8583.5,10265.3125
22.56,8583.5625,10265.625
22.580000000000002,8583.9375,10265.9375
22.6,8583.875,10265.9375
22.62,8583.9375,10265.875
22.64,8584.0,10265.6875
22.66,8583.9375,10266.0
22.68,8584.25,10266.1875
22.7,8584.0625,10266.4375
22.72,8584.0625,10265.875
22.740000000000002,8584.25,10266.375
22.76,8584.1875,10266.4375
22.78,8584.25,10266.5625
22.8,8583.9375,10266.0
22.82,8584.375,10266.4375
22.84,8584.1875,10266.5
22.86,8584.4375,10267.0
22.88,8584.75,10267.5625
22.900000000000002,8584.5625,10267.25
22.92,8584.75,10267.1875
22.94,8584.4375,10266.6875
22.96,8584.5,10266.625
22.98,8584.3125,10266.3125
23.0,8584.3125,10266.1875
23.02,8583.9375,10265.8125
23.04,8583.625,10265.0625
23.06,8583.5625,10264.8125
23.080000000000002,8583.6875,10264.9375
23.1,8583.6875,10265.25
23.12,8583.375,10264.4375
23.14,8583.625,10264.375
23.16,8583.6875,10264.25
23.18,8583.3125,10264.0
23.2,8583.0,10264.5
23.22,8582.875,10264.25
23.240000000000002,8582.8125,10263.8125
23.26,8583.3125,10264.0
23.28,8583.0,10263.75
23.3,8582.9375,10264.125
23.32,8582.8125,10264.4375
23.34,8583.125,10264.375
23.36,8582.9375,10264.1875
23.38,8582.8125,10264.3125
23.400000000000002,8583.0625,10265.0
23.42,8583.25,10264.4375
23.44,8583.125,10264.875
23.46,8582.875,10264.8125
23.48,8583.0625,10264.6875
23.5,8583.4375,10265.0625
23.52,8583.0625,10265.1875
23.54,8583.25,10265.375
23.56,8583.375,10265.4375
23.580000000000002,8583.3125,10265.375
23.6,8583.4375,10265.75
23.62,8583.25,10265.5625
23.64,8583.4375,10266.0625
23.66,8583.625,10266.3125
23.68,8583.75,10266.4375
23.7,8583.5,10266.3125
23.72,8583.5625,10266.6875
23.740000000000002,8583.6875,10266.75
23.76,8583.5,10266.6875
23.78,8583.875,10267.0625
23.8,8583.375,10266.125
23.82,8583.375,10265.8125
23.84,8583.4375,10266.0
23.86,8583.875,10266.375
23.88,8583.5,10265.9375
23.900000000000002,8583.375,10265.6875
23.92,8583.375,10265.75
23.94,8583.375,10265.25
23.96,8582.8125,10264.625
23.98,8582.875,10264.0
24.0,8582.375,10263.9375
24.02,8582.0,10264.0
24.04,8582.0625,10264.125
24.060000000000002,8582.625,10264.0625
24.080000000000002,8582.125,10263.9375
24.1,8582.0,10264.25
24.12,8582.4375,10264.5
24.14,8582.6875,10264.5625
24.16,8582.125,10264.8125
24.18,8582.1875,10264.1875
24.2,8582.25,10264.75
24.22,8582.5625,10264.75
24.240000000000002,8582.5,10264.75
24.26,8582.4375,10265.3125
24.28,8582.6875,10265.1875
24.3,8582.4375,10265.3125
24.32,8582.6875,10265.75
24.34,8582.625,10265.625
24.36,8582.625,10265.9375
24.38,8582.5,10265.8125
24.400000000000002,8582.375,10265.875
24.42,8582.375,10266.1875
24.44,8582.375,10266.375
24.46,8582.9375,10266.75
24.48,8583.0,10266.875
24.5,8583.3125,10267.4375
24.52,8583.3125,10267.5
24.54,8583.3125,10267.6875
24.560000000000002,8583.375,10267.875
24.580000000000002,8583.5625,10268.125
24.6,8583.375,10268.3125
24.62,8583.6875,10268.4375
24.64,8583.4375,10267.5625
24.66,8583.3125,10267.5
24.68,8583.25,10267.0
24.7,8583.125,10266.9375
24.72,8583.0625,10266.9375
24.740000000000002,8583.1875,10266.625
24.76,8583.0,10266.6875
24.78,8583.0,10266.8125
24.8,8583.4375,10267.0625
24.82,8583.375,10267.1875
24.84,8584.0,10268.125
24.86,8583.9375,10268.1875
24.88,8584.125,10268.1875
24.900000000000002,8584.4375,10268.125
24.92,8584.3125,10268.4375
24.94,8584.625,10268.75
24.96,8584.4375,10269.0
24.98,8585.125,10269.3125
25.0,8584.9375,10269.375
25.02,8585.5,10269.9375
25.04,8585.5625,10270.3125
25.060000000000002,8585.375,10270.5625
25.080000000000002,8585.5,10270.5625
25.1,8585.5,10270.5625
25.12,8586.0625,10271.0625
25.14,8586.3125,10271.5625
25.16,8586.1875,10271.5625
25.18,8586.5,10271.625
25.2,8586.4375,10271.75
25.22,8586.875,10271.9375
25.240000000000002,8587.0625,10272.75
25.26,8587.25,10273.3125
25.28,8587.5625,10273.6875
25.3,8587.5,10273.5
25.32,8587.625,10274.0
25.34,8587.9375,10274.1875
25.36,8588.375,10274.5625
25.38,8588.875,10275.0625
25.400000000000002,8588.6875,10275.3125
25.42,8588.6875,10275.375
25.44,8589.0,10275.5
25.46,8589.1875,10275.9375
25.48,8589.0625,10275.625
25.5,8588.875,10275.1875
25.52,8588.875,10275.4375
25.54,8588.875,10274.8125
25.560000000000002,8588.625,10274.4375
25.580000000000002,8588.3125,10274.0625
25.6,8588.625,10274.0625
25.62,8588.75,10274.25
25.64,8588.5,10273.5
25.66,8588.25,10273.375
25.68,8588.0,10273.0
25.7,8588.0,10272.9375
25.72,8587.8125,10272.5625
25.740000000000002,8587.6875,10272.6875
25.76,8587.6875,10272.25
25.78,8587.0625,10271.9375
25.8,8586.875,10271.3125
25.82,8586.875,10271.125
25.84,8586.75,10271.625
25.86,8586.6875,10271.375
25.88,8586.3125,10271.4375
25.900000000000002,8586.5,10271.625
25.92,8586.4375,10271.4375
25.94,8586.0625,10271.6875
25.96,8586.3125,10271.375
25.98,8585.875,10271.6875
26.0,8586.0,10271.8125
26.02,8585.625,10271.625
26.04,8585.5,10271.25
26.060000000000002,8585.375,10270.8125
26.080000000000002,8585.5625,10270.75
26.1,8585.1875,10270.5
26.12,8585.25,10270.75
26.14,8585.375,10271.125
26.16,8585.4375,10270.8125
26.18,8585.25,10270.75
26.2,8584.9375,10270.5
26.22,8584.75,10270.0625
26.240000000000002,8584.5,10270.4375
26.26,8584.3125,10270.5
26.28,8584.125,10270.375
26.3,8583.9375,10270.75
26.32,8583.8125,10270.6875
26.34,8583.375,10269.5625
26.36,8583.375,10269.25
26.38,8583.25,10269.4375
26.400000000000002,8582.75,10269.1875
26.42,8582.75,10268.75
26.44,8582.4375,10268.25
26.46,8582.1875,10267.75
26.48,8582.125,10267.5
26.5,8581.6875,10267.3125
26.52,8581.8125,10266.8125
26.54,8581.75,10266.8125
26.560000000000002,8581.5,10266.375
26.580000000000002,8581.1875,10266.3125
26.6,8581.375,10266.3125
26.62,8580.75,10265.9375
26.64,8581.1875,10266.0625
26.66,8580.75,10265.5625
26.68,8580.6875,10265.625
26.7,8580.1875,10265.0
26.72,8579.8125,10264.75
26.740000000000002,8579.75,10264.625
26.76,8579.5625,10264.75
26.78,8579.4375,10264.5
26.8,8579.4375,10264.625
26.82,8579.5,10264.1875
26.84,8579.375,10264.5
26.86,8579.125,10264.5625
26.88,8579.125,10264.4375
26.900000000000002,8579.0,10264.4375
26.92,8578.9375,10264.0625
26.94,8579.125,10264.5625
26.96,8579.125,10264.5625
26.98,8579.0,10264.4375
27.0,8578.6875,10264.125
27.02,8578.5625,10264.25
27.04,8578.6875,10264.5
27.060000000000002,8578.5,10264.3125
27.080000000000002,8578.3125,10264.5625
27.1,8578.6875,10265.125
27.12,8578.625,10265.0625
27.14,8579.0,10265.375
27.16,8578.8125,10265.8125
27.18,8578.75,10265.75
27.2,8578.8125,10265.0625
27.22,8578.5,10264.5625
27.240000000000002,8578.4375,10264.0625
27.26,8577.9375,10263.375
27.28,8577.4375,10262.8125
27.3,8577.3125,10262.0625
27.32,8577.25,10262.3125
27.34,8576.9375,10261.75
27.36,8576.9375,10261.25
27.38,8576.3125,10260.875
27.400000000000002,8576.625,10260.9375
27.42,8576.4375,10260.6875
27.44,8576.3125,10260.5
27.46,8576.4375,10260.3125
27.48,8576.0625,10259.75
27.5,8575.875,10259.625
27.52,8576.0625,10259.4375
27.54,8576.0,10259.25
27.560000000000002,8575.8125,10260.125
27.580000000000002,8576.0,10259.9375
27.6,8575.8125,10260.25
27.62,8576.25,10260.3125
27.64,8576.25,10260.375
27.66,8576.375,10260.3125
27.68,8576.5,10260.75
27.7,8577.25,10261.875
27.72,8577.5625,10262.625
27.740000000000002,8577.9375,10262.5625
27.76,8578.0,10262.8125
27.78,8577.8125,10262.5
27.8,8578.0,10263.1875
27.82,8578.1875,10263.75
27.84,8578.6875,10264.0
27.86,8578.9375,10264.4375
27.88,8579.0625,10264.5625
27.900000000000002,8579.4375,10264.5
27.92,8579.5,10264.75
27.94,8579.9375,10265.75
27.96,8580.125,10266.125
27.98,8580.5625,10265.875
28.0,8580.8125,10266.625
28.02,8581.0625,10267.0625
28.04,8581.5,10266.4375
28.060000000000002,8580.9375,10266.3125
28.080000000000002,8581.375,10266.25
28.1,8581.3125,10266.3125
28.12,8581.125,10266.75
28.14,8581.0,10265.6875
28.16,8581.0,10265.375
28.18,8581.25,10265.25
28.2,8581.125,10265.125
28.22,8581.5,10265.0625
28.240000000000002,8581.4375,10264.4375
28.26,8581.5,10264.625
28.28,8581.375,10264.625
28.3,8581.3125,10264.5
28.32,8581.3125,10264.625
28.34,8581.875,10264.3125
28.36,8581.3125,10264.0625
28.38,8581.0,10263.5
28.400000000000002,8581.4375,10263.9375
28.42,8581.1875,10263.625
28.44,8581.375,10263.625
28.46,8581.375,10263.4375
28.48,8581.375,10263.375
28.5,8581.5,10263.5625
28.52,8581.8125,10263.5625
28.54,8581.8125,10263.0625
28.560000000000002,8581.625,10262.8125
28.580000000000002,8581.8125,10263.25
28.6,8581.4375,10262.5
28.62,8581.6875,10262.375
28.64,8581.25,10261.9375
28.66,8581.5,10261.75
28.68,8581.125,10261.625
28.7,8581.25,10261.875
28.72,8580.9375,10261.4375
28.740000000000002,8581.25,10261.1875
28.76,8580.8125,10261.4375
28.78,8580.75,10261.25
28.8,8580.8125,10261.0
28.82,8580.75,10260.75
28.84,8581.0625,10261.5625
28.86,8581.125,10261.3125
28.88,8581.0,10260.9375
28.900000000000002,8580.625,10260.25
28.92,8580.4375,10259.9375
28.94,8580.25,10259.0625
28.96,8579.625,10259.1875
28.98,8579.5625,10258.1875
29.0,8579.0625,10257.5
29.02,8578.9375,10257.0
29.04,8578.875,10256.5625
29.060000000000002,8578.25,10255.75
29.080000000000002,8577.8125,10255.5625
29.1,8577.625,10255.0
29.12,8577.6875,10255.125
29.14,8577.375,10254.8125
29.16,8577.3125,10254.6875
29.18,8577.125,10254.1875
29.2,8577.0,10254.0625
29.22,8576.6875,10254.0
29.240000000000002,8577.0625,10254.3125
29.26,8576.875,10254.125
29.28,8577.0625,10254.0625
29.3,8576.8125,10254.0
29.32,8576.75,10254.125
29.34,8576.125,10254.4375
29.36,8576.875,10255.125
29.38,8576.875,10255.1875
29.400000000000002,8576.8125,10255.0625
29.42,8576.9375,10254.875
29.44,8577.125,10255.0
29.46,8577.1875,10255.3125
29.48,8577.25,10255.6875
29.5,8577.625,10256.4375
29.52,8577.5625,10256.375
29.54,8577.375,10256.1875
29.560000000000002,8577.875,10256.875
29.580000000000002,8578.0625,10257.0625
29.6,8578.4375,10258.0
29.62,8578.5625,10258.0625
29.64,8579.0625,10258.5
29.66,8578.875,10258.875
29.68,8578.9375,10258.8125
29.7,8579.0625,10259.0
29.72,8578.875,10258.3125
29.740000000000002,8579.0625,10258.5
29.76,8578.75,10257.4375
29.78,8578.875,10257.5625
29.8,8578.5625,10257.375
29.82,8578.25,10257.0
29.84,8577.9375,10256.8125
29.86,8577.9375,10256.4375
29.88,8578.4375,10256.3125
29.900000000000002,8578.3125,10256.8125
29.92,8578.375,10256.5625
29.94,8578.1875,10256.4375
29.96,8578.375,10256.8125
29.98,8578.4375,10257.4375
30.0,8579.1875,10257.8125
30.02,8579.0625,10258.0
30.04,8579.1875,10258.0
30.060000000000002,8579.1875,10258.375
30.080000000000002,8579.3125,10258.5
30.1,8579.75,10259.4375
30.12,8579.875,10259.5625
30.14,8580.0625,10260.0
30.16,8580.3125,10259.875
30.18,8580.5,10260.625
30.2,8581.0625,10261.375
30.22,8581.3125,10261.75
30.240000000000002,8581.6875,10261.75
30.26,8581.5,10261.9375
30.28,8581.625,10262.5625
30.3,8582.125,10262.5625
30.32,8582.5,10263.5
30.34,8582.5625,10263.0625
30.36,8582.625,10263.5625
30.38,8582.75,10263.75
30.400000000000002,8582.75,10264.0625
30.42,8583.25,10264.625
30.44,8583.125,10264.625
30.46,8583.4375,10265.0
30.48,8583.5625,10265.4375
30.5,8583.75,10265.5625
30.52,8583.6875,10265.4375
30.54,8583.9375,10266.1875
30.560000000000002,8584.5,10266.625
30.580000000000002,8584.6875,10266.375
30.6,8585.0,10266.4375
30.62,8584.5625,10265.8125
30.64,8584.625,10266.25
30.66,8584.5625,10265.75
30.68,8584.5625,10265.875
30.7,8584.5625,10265.1875
30.72,8584.1875,10265.3125
30.740000000000002,8584.25,10264.875
30.76,8584.1875,10264.9375
30.78,8584.3125,10264.625
30.8,8583.8125,10264.75
30.82,8583.875,10264.4375
30.84,8584.0,10264.9375
30.86,8583.9375,10264.25
30.88,8583.5,10264.0625
30.900000000000002,8583.25,10263.6875
30.92,8583.5,10263.875
30.94,8583.375,10263.8125
30.96,8583.3125,10263.5
30.98,8583.125,10263.375
31.0,8582.75,10262.8125
31.02,8583.0,10262.75
31.04,8582.4375,10262.6875
31.060000000000002,8582.4375,10262.625
31.080000000000002,8582.5625,10262.4375
31.1,8582.5,10262.5
31.12,8582.5,10262.125
31.14,8582.375,10261.8125
31.16,8582.125,10261.9375
31.18,8582.0625,10262.125
31.2,8581.9375,10261.8125
31.220000000000002,8581.9375,10262.375
31.240000000000002,8581.6875,10262.25
31.26,8581.8125,10262.3125
31.28,8581.875,10262.25
31.3,8582.0,10262.875
31.32,8582.0,10262.875
31.34,8581.8125,10262.8125
31.36,8581.5,10262.875
31.38,8581.6875,10263.375
31.400000000000002,8581.5,10263.25
31.42,8581.625,10263.5
31.44,8582.0,10263.5
31.46,8581.875,10263.5625
31.48,8581.625,10263.0
31.5,8581.4375,10262.875
31.52,8581.5,10262.875
31.54,8580.875,10262.6875
31.560000000000002,8581.375,10262.625
31.580000000000002,8580.625,10262.4375
31.6,8580.8125,10261.9375
31.62,8580.75,10261.625
31.64,8580.625,10261.6875
31.66,8580.3125,10261.5625
31.68,8580.875,10262.375
31.7,8580.8125,10262.5
31.720000000000002,8580.6875,10262.3125
31.740000000000002,8580.5,10262.1875
31.76,8580.6875,10262.125
31.78,8580.1875,10262.25
31.8,8580.4375,10262.375
31.82,8580.5,10262.5625
31.84,8580.625,10262.9375
31.86,8580.25,10262.6875
31.88,8580.1875,10262.9375
31.900000000000002,8580.625,10263.5
31.92,8580.4375,10263.25
31.94,8580.8125,10263.8125
31.96,8581.0,10264.25
31.98,8581.0,10264.25
32.0,8580.875,10264.625
32.02,8580.9375,10264.4375
32.04,8581.375,10265.25
32.06,8581.375,10265.625
32.08,8581.625,10266.25
32.1,8581.9375,10266.5625
32.12,8581.9375,10267.1875
32.14,8582.25,10267.625
32.160000000000004,8582.6875,10268.0
32.18,8582.5,10268.1875
32.2,8582.75,10268.625
32.22,8583.125,10269.25
32.24,8583.3125,10269.6875
32.26,8583.625,10270.75
32.28,8583.6875,10270.9375
32.3,8584.375,10271.3125
32.32,8584.75,10271.8125
32.34,8584.75,10271.75
32.36,8584.5625,10270.9375
32.38,8584.8125,10271.3125
32.4,8585.0,10270.9375
32.42,8584.8125,10271.3125
32.44,8584.5625,10270.8125
32.46,8584.8125,10270.625
32.480000000000004,8585.0625,10270.6875
32.5,8584.9375,10270.8125
32.52,8584.875,10270.8125
32.54,8585.1875,10271.0625
32.56,8585.375,10270.6875
32.58,8585.25,10270.6875
32.6,8585.25,10270.3125
32.62,8585.3125,10270.8125
32.64,8585.625,10271.0
32.660000000000004,8585.6875,10270.8125
32.68,8585.6875,10270.9375
32.7,8585.75,10270.75
32.72,8585.75,10270.5
32.74,8585.4375,10270.625
32.76,8585.8125,10270.5625
32.78,8586.1875,10270.8125
32.8,8586.0625,10270.5625
32.82,8585.75,10270.8125
32.84,8586.0,10271.25
32.86,8586.0,10270.9375
32.88,8586.125,10270.875
32.9,8586.0625,10270.8125
32.92,8585.625,10270.75
32.94,8585.75,10270.5
32.96,8585.5625,10270.75
32.980000000000004,8585.5625,10270.5625
33.0,8585.5625,10270.625
33.02,8585.5,10270.3125
33.04,8585.4375,10270.125
33.06,8585.3125,10270.0625
33.08,8585.4375,10270.125
33.1,8585.4375,10270.5
33.12,8585.375,10270.125
33.14,8585.375,10270.125
33.160000000000004,8585.375,10270.25
33.18,8585.4375,10270.1875
33.2,8585.1875,10270.0625
33.22,8585.0,10269.75
33.24,8584.75,10269.125
33.26,8584.625,10268.75
33.28,8584.375,10268.4375
33.3,8584.0625,10268.0
33.32,8583.4375,10267.25
33.34,8582.875,10266.375
33.36,8582.75,10265.9375
33.38,8582.8125,10266.0625
33.4,8582.6875,10266.0625
33.42,8582.625,10265.9375
33.44,8582.375,10265.3125
33.46,8582.25,10264.875
33.480000000000004,8581.9375,10264.625
33.5,8581.625,10264.5625
33.52,8581.75,10264.8125
33.54,8581.5,10264.6875
33.56,8581.1875,10264.3125
33.58,8581.1875,10264.3125
33.6,8580.9375,10264.5625
33.62,8580.6875,10264.75
33.64,8580.125,10264.25
33.660000000000004,8580.25,10264.6875
33.68,8579.75,10264.4375
33.7,8579.75,10264.375
33.72,8579.3125,10264.3125
33.74,8579.125,10264.1875
33.76,8578.75,10264.0
33.78,8578.875,10264.125
33.8,8579.0,10264.3125
33.82,8579.0,10264.5
33.84,8578.625,10264.5625
33.86,8578.5625,10264.6875
33.88,8578.1875,10264.5
33.9,8578.25,10264.5
33.92,8577.8125,10264.875
33.94,8577.5625,10264.625
33.96,8577.625,10264.8125
33.980000000000004,8577.4375,10264.875
34.0,8577.4375,10265.3125
34.02,8577.25,10265.1875
34.04,8576.9375,10265.0
34.06,8576.9375,10265.9375
34.08,8576.875,10266.0
34.1,8576.6875,10265.5625
34.12,8576.0625,10265.0
34.14,8576.375,10265.125
34.160000000000004,8576.375,10264.3125
34.18,8575.875,10264.0625
34.2,8575.75,10263.5
34.22,8575.3125,10263.0
34.24,8575.0625,10263.0
34.26,8574.75,10262.5625
34.28,8574.4375,10262.1875
34.300000000000004,8574.3125,10262.0
34.32,8574.0,10261.6875
34.34,8573.9375,10261.375
34.36,8573.75,10261.25
34.38,8573.625,10260.9375
34.4,8573.125,10260.75
34.42,8573.125,10260.375
34.44,8572.9375,10260.0
34.46,8572.375,10259.875
34.480000000000004,8572.625,10260.0
34.5,8572.6875,10260.25
34.52,8573.0,10260.3125
34.54,8572.875,10260.8125
34.56,8573.4375,10261.1875
34.58,8573.3125,10261.5
34.6,8573.5625,10261.625
34.62,8573.75,10262.5
34.64,8574.375,10262.9375
34.660000000000004,8574.1875,10262.5625
34.68,8574.3125,10263.0625
34.7,8574.625,10263.625
34.72,8575.5625,10264.25
34.74,8576.0,10264.875
34.76,8575.75,10265.0
34.78,8576.0,10265.25
34.800000000000004,8576.3125,10265.5
34.82,8576.6875,10266.5625
34.84,8577.375,10266.6875
34.86,8577.75,10267.1875
34.88,8578.0625,10267.5625
34.9,8578.8125,10268.5625
34.92,8579.0,10269.25
34.94,8579.125,10269.4375
34.96,8580.0,10270.25
34.980000000000004,8580.0625,10270.25
35.0,8580.1875,10270.0
35.02,8580.5625,10270.25
35.04,8580.8125,10270.0625
35.06,8580.8125,10269.6875
35.08,8580.6875,10270.0625
35.1,8580.9375,10269.6875
35.12,8581.125,10269.5625
35.14,8581.375,10269.9375
35.160000000000004,8581.1875,10269.8125
35.18,8581.4375,10269.5
35.2,8581.25,10269.1875
35.22,8581.5,10269.125
35.24,8581.8125,10269.4375
35.26,8581.9375,10269.4375
35.28,8582.0,10269.375
35.300000000000004,8582.3125,10269.25
35.32,8582.5625,10269.375
35.34,8582.6875,10269.9375
35.36,8582.5,10270.125
35.38,8582.6875,10269.4375
35.4,8582.9375,10269.4375
35.42,8582.4375,10269.5
35.44,8582.5,10269.5625
35.46,8582.875,10269.6875
35.480000000000004,8582.75,10269.6875
35.5,8583.125,10269.75
35.52,8582.875,10269.8125
35.54,8583.125,10270.0625
35.56,8583.0625,10269.875
35.58,8583.1875,10269.5
35.6,8582.875,10269.6875
35.62,8583.0,10269.8125
35.64,8583.375,10270.0625
35.660000000000004,8582.9375,10270.0
35.68,8583.25,10270.3125
35.7,8582.8125,10269.8125
35.72,8582.875,10269.4375
35.74,8583.0625,10270.0
35.76,8583.0,10269.875
35.78,8583.25,10270.375
35.800000000000004,8582.6875,10269.875
35.82,8582.6875,10269.75
35.84,8582.625,10269.0625
35.86,8582.1875,10268.6875
35.88,8582.0625,10268.5
35.9,8582.1875,10268.25
35.92,8581.5625,10266.9375
35.94,8581.5,10266.75
35.96,8581.5,10266.4375
35.980000000000004,8581.0,10266.125
36.0,8580.875,10265.6875
36.02,8580.75,10265.4375
36.04,8581.0625,10265.3125
36.06,8580.75,10265.4375
36.08,8580.625,10265.5
36.1,8580.4375,10265.8125
36.12,8580.75,10265.3125
36.14,8580.25,10265.1875
36.160000000000004,8579.75,10264.9375
36.18,8579.9375,10265.0625
36.2,8579.6875,10265.1875
36.22,8579.4375,10265.0
36.24,8579.0625,10264.75
36.26,8578.9375,10265.0
36.28,8578.8125,10264.9375
36.300000000000004,8579.0625,10265.0625
36.32,8578.9375,10265.5
36.34,8579.0,10265.3125
36.36,8578.6875,10265.375
36.38,8578.625,10265.1875
36.4,8578.0625,10264.6875
36.42,8577.9375,10265.3125
36.44,8577.9375,10265.25
36.46,8578.0,10265.375
36.480000000000004,8577.75,10265.375
36.5,8577.5625,10265.4375
36.52,8577.8125,10265.6875
36.54,8577.9375,10266.5625
36.56,8578.0,10266.375
36.58,8577.9375,10266.8125
36.6,8577.3125,10266.3125
36.62,8577.75,10266.6875
36.64,8577.9375,10267.3125
36.660000000000004,8577.9375,10267.25
36.68,8577.75,10267.0625
36.7,8577.5625,10266.75
36.72,8577.1875,10265.875
36.74,8577.1875,10265.625
36.76,8577.25,10265.125
36.78,8576.875,10265.25
36.800000000000004,8576.875,10264.875
36.82,8576.4375,10264.6875
36.84,8576.75,10264.4375
36.86,8576.625,10264.25
36.88,8576.8125,10264.0625
36.9,8576.6875,10264.0625
36.92,8576.75,10264.1875
36.94,8576.1875,10264.25
36.96,8576.6875,10264.25
36.980000000000004,8576.5625,10264.3125
37.0,8576.4375,10264.1875
37.02,8576.375,10264.1875
37.04,8576.0,10264.1875
37.06,8576.1875,10264.125
37.08,8575.8125,10264.3125
37.1,8576.25,10264.6875
37.12,8576.1875,10264.125
37.14,8576.125,10264.5
37.160000000000004,8576.3125,10265.125
37.18,8576.5625,10265.375
37.2,8576.8125,10265.9375
37.22,8577.1875,10266.0625
37.24,8577.0625,10266.25
37.26,8576.9375,10266.5625
37.28,8577.8125,10267.3125
37.300000000000004,8577.75,10267.4375
37.32,8578.0625,10268.1875
37.34,8578.0,10268.875
37.36,8578.6875,10268.625
37.38,8578.375,10268.375
37.4,8578.75,10269.1875
37.42,8578.875,10269.6875
37.44,8578.875,10269.4375
37.46,8579.375,10270.25
37.480000000000004,8580.1875,10271.0625
37.5,8580.375,10271.6875
37.52,8580.25,10271.4375
37.54,8580.6875,10271.6875
37.56,8581.0625,10271.5625
37.58,8581.0,10271.5625
37.6,8581.375,10271.5
37.62,8581.375,10271.3125
37.64,8581.4375,10271.25
37.660000000000004,8581.625,10271.375
37.68,8581.75,10271.625
37.7,8581.625,10271.25
37.72,8581.9375,10271.0
37.74,8582.0625,10271.1875
37.76,8581.9375,10271.125
37.78,8582.375,10271.5
37.800000000000004,8582.3125,10271.125
37.82,8582.3125,10271.375
37.84,8582.875,10271.4375
37.86,8582.6875,10271.375
37.88,8582.75,10271.5625
37.9,8583.0,10271.8125
37.92,8582.9375,10271.75
37.94,8583.0,10271.8125
37.96,8583.5,10272.1875
37.980000000000004,8583.5,10272.4375
38.0,8583.6875,10272.6875
38.02,8584.375,10273.0
38.04,8583.875,10273.0625
38.06,8584.25,10273.25
38.08,8584.375,10273.5625
38.1,8584.3125,10273.75
38.12,8584.375,10273.875
38.14,8585.0,10274.5625
38.160000000000004,8585.125,10274.625
38.18,8585.375,10274.625
38.2,8585.5,10275.125
38.22,8585.875,10275.1875
38.24,8585.5625,10275.4375
38.26,8585.875,10276.125
38.28,8586.0625,10276.1875
38.300000000000004,8586.3125,10276.375
38.32,8586.1875,10276.5
38.34,8586.8125,10276.4375
38.36,8586.5625,10276.375
38.38,8586.875,10276.3125
38.4,8586.8125,10275.6875
38.42,8586.5,10275.125
38.44,8586.375,10275.1875
38.46,8586.25,10274.75
38.480000000000004,8586.125,10273.6875
38.5,8585.4375,10273.125
38.52,8585.25,10272.625
38.54,8585.1875,10272.25
38.56,8585.25,10272.1875
38.58,8585.1875,10271.5
38.6,8584.8125,10270.9375
38.62,8584.5625,10270.8125
38.64,8584.1875,10270.375
38.660000000000004,8584.0,10270.1875
38.68,8584.1875,10270.4375
38.7,8584.125,10270.0
38.72,8583.75,10269.6875
38.74,8583.6875,10269.5625
38.76,8583.375,10269.8125
38.78,8583.1875,10269.75
38.800000000000004,8582.9375,10269.0
38.82,8582.6875,10269.0625
38.84,8582.75,10269.5
38.86,8582.4375,10269.0625
38.88,8582.625,10269.4375
38.9,8582.5,10269.25
38.92,8582.4375,10269.25
38.94,8582.375,10270.0625
38.96,8582.4375,10270.3125
38.980000000000004,8582.1875,10269.8125
39.0,8582.0625,10269.9375
39.02,8582.125,10270.375
39.04,8582.5,10270.6875
39.06,8582.25,10271.125
39.08,8582.375,10271.0
39.1,8582.1875,10271.375
39.12,8582.4375,10271.3125
39.14,8582.1875,10271.5625
39.160000000000004,8582.25,10271.6875
39.18,8582.5,10272.125
39.2,8581.9375,10272.0625
39.22,8582.1875,10272.6875
39.24,8582.5,10272.625
39.26,8582.0,10272.0
39.28,8581.8125,10271.875
39.300000000000004,8581.6875,10271.4375
39.32,8581.4375,10271.0625
39.34,8581.375,10270.875
39.36,8581.0625,10270.5625
39.38,8580.9375,10270.625
39.4,8581.25,10270.75
39.42,8581.1875,10270.375
39.44,8581.0625,10269.875
39.46,8580.625,10269.3125
39.480000000000004,8580.625,10269.0625
39.5,8580.375,10269.25
39.52,8580.25,10269.0625
39.54,8580.0625,10269.25
39.56,8580.125,10269.375
39.58,8579.8125,10268.8125
39.6,8580.0625,10269.0
39.62,8579.4375,10268.875
39.64,8579.1875,10268.9375
39.660000000000004,8579.3125,10268.8125
39.68,8579.3125,10268.625
39.7,8578.8125,10268.4375
39.72,8578.8125,10268.8125
39.74,8578.9375,10269.0625
39.76,8578.75,10269.25
39.78,8578.5625,10269.25
39.800000000000004,8578.5,10269.0625
39.82,8578.6875,10269.4375
39.84,8578.4375,10269.25
39.86,8578.5,10269.4375
39.88,8578.125,10269.5
39.9,8578.3125,10269.5625
39.92,8578.6875,10269.5
39.94,8578.625,10270.4375
39.96,8579.0,10270.4375
39.980000000000004,8579.0625,10270.625
40.0,8579.25,10270.8125
40.02,8579.1875,10271.375
40.04,8579.875,10272.625
40.06,8580.25,10273.25
40.08,8580.875,10273.6875
40.1,8581.1875,10274.375
40.12,8581.3125,10274.625
40.14,8581.3125,10274.375
40.160000000000004,8581.9375,10274.4375
40.18,8582.3125,10275.1875
40.2,8582.5625,10275.25
40.22,8582.875,10275.0
40.24,8582.875,10275.1875
40.26,8583.1875,10275.5625
40.28,8583.3125,10275.1875
40.300000000000004,8584.0,10275.125
40.32,8584.0,10275.375
40.34,8584.5,10275.25
40.36,8584.3125,10275.375
40.38,8584.8125,10275.6875
40.4,8585.375,10275.625
40.42,8585.875,10276.0625
40.44,8586.4375,10276.25
40.46,8586.5625,10276.3125
40.480000000000004,8586.4375,10276.3125
40.5,8586.6875,10276.1875
40.52,8587.0625,10276.375
40.54,8586.9375,10276.75
40.56,8587.3125,10277.3125
40.58,8587.6875,10277.1875
40.6,8587.375,10277.0625
40.62,8588.0,10277.0625
40.64,8588.375,10277.375
40.660000000000004,8588.4375,10277.875
40.68,8588.4375,10278.0
40.7,8588.8125,10277.875
40.72,8588.6875,10278.0
40.74,8589.125,10278.1875
40.76,8589.125,10278.125
40.78,8589.1875,10278.1875
40.800000000000004,8589.625,10278.75
40.82,8589.625,10278.375
40.84,8589.4375,10278.4375
40.86,8589.375,10278.25
40.88,8589.25,10278.0
40.9,8589.3125,10277.75
40.92,8589.125,10277.8125
40.94,8589.4375,10277.75
40.96,8589.4375,10277.9375
40.980000000000004,8588.875,10277.6875
41.0,8588.75,10277.0
41.02,8589.0,10276.5
41.04,8588.625,10276.125
41.06,8588.1875,10275.4375
41.08,8588.4375,10275.375
41.1,8587.9375,10274.75
41.12,8587.4375,10274.1875
41.14,8587.1875,10273.8125
41.160000000000004,8587.625,10273.6875
41.18,8587.5625,10273.5
41.2,8587.1875,10272.6875
41.22,8587.125,10272.8125
41.24,8587.125,10272.6875
41.26,8586.875,10272.5
41.28,8586.5625,10272.375
41.300000000000004,8586.4375,10272.25
41.32,8586.25,10272.125
41.34,8586.375,10272.0
41.36,8586.125,10272.0625
41.38,8585.625,10271.875
41.4,8585.9375,10272.375
41.42,8585.75,10272.5625
41.44,8585.625,10272.4375
41.46,8585.3125,10272.0625
41.480000000000004,8585.625,10272.375
41.5,8585.75,10272.5
41.52,8585.4375,10273.0625
41.54,8585.75,10273.3125
41.56,8585.6875,10273.1875
41.58,8585.125,10272.9375
41.6,8585.75,10273.3125
41.62,8585.875,10273.9375
41.64,8586.125,10273.75
41.660000000000004,8585.5,10274.125
41.68,8585.9375,10273.9375
41.7,8585.875,10274.25
41.72,8586.125,10274.5
41.74,8586.3125,10275.0625
41.76,8585.9375,10274.875
41.78,8586.5625,10275.4375
41.800000000000004,8586.3125,10276.125
41.82,8586.625,10275.875
41.84,8586.3125,10275.375
41.86,8586.4375,10275.3125
41.88,8586.125,10275.125
41.9,8586.3125,10274.8125
41.92,8586.0,10274.5
41.94,8585.6875,10273.75
41.96,8585.4375,10273.8125
41.980000000000004,8585.625,10273.375
42.0,8585.75,10273.625
42.02,8585.8125,10273.9375
42.04,8585.75,10273.3125
42.06,8585.875,10273.1875
42.08,8585.9375,10273.5
42.1,8586.4375,10273.75
42.12,8586.25,10273.9375
42.14,8586.4375,10273.9375
42.160000000000004,8586.3125,10273.625
42.18,8586.4375,10274.4375
42.2,8587.375,10274.875
42.22,8586.6875,10274.5625
42.24,8586.4375,10274.8125
42.26,8586.9375,10275.1875
42.28,8587.3125,10275.625
42.300000000000004,8586.9375,10275.4375
42.32,8587.5625,10275.5625
42.34,8587.5,10276.3125
42.36,8587.75,10276.5
42.38,8587.9375,10276.5
42.4,8587.875,10276.8125
42.42,8588.5,10277.1875
42.44,8588.625,10277.25
42.46,8588.875,10277.75
42.480000000000004,8589.125,10277.9375
42.5,8589.4375,10278.125
42.52,8589.5625,10278.6875
42.54,8589.875,10278.4375
42.56,8589.3125,10278.4375
42.58,8589.75,10278.9375
42.6,8590.125,10279.375
42.62,8590.125,10279.3125
42.64,8590.3125,10279.5625
42.660000000000004,8590.625,10279.8125
42.68,8590.8125,10279.5
42.7,8591.0,10279.5625
42.72,8590.6875,10279.75
42.74,8590.4375,10279.0625
42.76,8590.6875,10278.9375
42.78,8590.625,10278.5625
42.800000000000004,8590.0625,10277.75
42.82,8590.0625,10277.6875
42.84,8590.3125,10277.5
42.86,8590.375,10277.0625
42.88,8590.25,10277.0
42.9,8590.3125,10276.9375
42.92,8590.0,10276.9375
42.94,8589.9375,10276.5625
42.96,8589.75,10276.4375
42.980000000000004,8589.375,10275.5625
43.0,8589.1875,10275.0625
43.02,8588.75,10274.8125
43.04,8588.75,10274.8125
43.06,8588.75,10274.875
43.08,8588.5,10273.875
43.1,8588.1875,10273.75
43.12,8588.1875,10273.3125
43.14,8587.9375,10273.0625
43.160000000000004,8587.9375,10273.0
43.18,8587.5,10273.0625
43.2,8587.75,10272.875
43.22,8587.4375,10272.8125
43.24,8587.5625,10272.9375
43.26,8587.6875,10272.875
43.28,8587.0,10273.0
43.300000000000004,8587.3125,10272.6875
43.32,8587.25,10272.8125
43.34,8587.1875,10272.9375
43.36,8587.375,10272.9375
43.38,8587.0,10273.0
43.4,8586.9375,10273.0
43.42,8586.9375,10272.875
43.44,8586.6875,10273.1875
43.46,8586.5625,10273.25
43.480000000000004,8586.5625,10273.1875
43.5,8586.4375,10273.25
43.52,8586.3125,10273.0625
43.54,8586.3125,10272.4375
43.56,8586.3125,10272.0
43.58,8585.4375,10271.25
43.6,8584.875,10270.5625
43.62,8584.9375,10269.8125
43.64,8584.3125,10269.25
43.660000000000004,8584.0625,10268.75
43.68,8583.75,10268.25
43.7,8583.9375,10268.375
43.72,8583.875,10267.875
43.74,8583.125,10267.3125
43.76,8582.9375,10267.0
43.78,8582.1875,10266.625
43.800000000000004,8582.125,10266.3125
43.82,8581.5625,10266.4375
43.84,8582.0,10266.3125
43.86,8581.75,10266.125
43.88,8581.3125,10265.9375
43.9,8581.375,10265.9375
43.92,8581.5,10265.875
43.94,8581.1875,10266.25
43.96,8580.875,10265.4375
43.980000000000004,8580.5625,10265.625
44.0,8580.9375,10265.4375
44.02,8580.6875,10265.6875
44.04,8580.8125,10265.8125
44.06,8580.625,10266.0
44.08,8580.6875,10265.6875
44.1,8580.4375,10265.8125
44.12,8580.8125,10266.25
44.14,8581.0625,10266.6875
44.160000000000004,8580.5625,10266.6875
44.18,8581.0625,10266.5625
44.2,8580.9375,10266.8125
44.22,8580.6875,10267.0
44.24,8581.25,10267.625
44.26,8581.25,10268.25
44.28,8581.5625,10268.6875
44.300000000000004,8581.5625,10268.8125
44.32,8581.875,10269.125
44.34,8582.25,10269.9375
44.36,8582.0625,10270.5
44.38,8582.625,10271.0
44.4,8583.0625,10271.0
44.42,8582.8125,10270.625
44.44,8583.25,10271.0
44.46,8583.625,10271.0
44.480000000000004,8583.625,10271.25
44.5,8583.375,10270.75
44.52,8583.9375,10270.5
44.54,8584.125,10270.8125
44.56,8584.25,10271.0
44.58,8584.6875,10271.25
44.6,8584.3125,10270.875
44.62,8584.5,10271.125
44.64,8584.8125,10271.0
44.660000000000004,8584.875,10271.6875
44.68,8585.3125,10271.0625
44.7,8585.1875,10271.6875
44.72,8585.8125,10271.4375
44.74,8585.25,10271.1875
44.76,8585.4375,10271.8125
44.78,8585.8125,10271.4375
44.800000000000004,8586.0,10271.5625
44.82,8585.875,10271.8125
44.84,8585.75,10271.5
44.86,8585.8125,10271.8125
44.88,8586.3125,10272.25
44.9,8586.1875,10272.0
44.92,8586.5,10272.1875
44.94,8586.5625,10272.1875
44.96,8586.8125,10272.6875
44.980000000000004,8587.0625,10272.5625
45.0,8586.75,10272.6875
45.02,8587.125,10273.25
45.04,8587.0625,10273.625
45.06,8587.125,10273.375
45.08,8587.625,10273.4375
45.1,8587.6875,10274.0625
45.12,8588.375,10274.0
45.14,8588.0625,10274.0625
45.160000000000004,8588.0,10274.375
45.18,8588.375,10274.6875
45.2,8588.25,10274.75
45.22,8588.625,10274.6875
45.24,8588.6875,10274.6875
45.26,8588.125,10273.875
45.28,8588.1875,10273.375
45.300000000000004,8588.0,10273.125
45.32,8587.5625,10272.5
45.34,8587.3125,10272.0
45.36,8587.1875,10271.3125
45.38,8587.125,10271.0625
45.4,8586.875,10270.75
45.42,8587.25,10270.625
45.44,8587.0625,10270.3125
45.46,8586.5625,10269.8125
45.480000000000004,8586.1875,10269.5625
45.5,8586.0625,10268.9375
45.52,8585.625,10268.5625
45.54,8585.625,10268.375
45.56,8585.125,10267.9375
45.58,8585.0625,10267.875
45.6,8584.625,10267.4375
45.62,8584.125,10266.875
45.64,8583.625,10266.875
45.660000000000004,8583.3125,10266.75
45.68,8583.125,10266.875
45.7,8583.125,10266.875
45.72,8582.875,10266.3125
45.74,8582.8125,10266.6875
45.76,8582.8125,10266.3125
45.78,8582.3125,10266.25
45.800000000000004,8582.75,10266.6875
45.82,8582.4375,10266.4375
45.84,8582.0,10266.625
45.86,8582.0,10266.5625
45.88,8582.125,10266.5
45.9,8582.3125,10266.875
45.92,8581.625,10266.5625
45.94,8581.1875,10266.75
45.96,8581.375,10266.375
45.980000000000004,8581.0,10266.5
46.0,8580.4375,10266.4375
46.02,8580.5,10266.625
46.04,8580.0625,10267.125
46.06,8580.375,10267.0
46.08,8580.375,10267.375
46.1,8580.4375,10267.1875
46.12,8580.4375,10266.875
46.14,8579.8125,10266.5
46.160000000000004,8579.5625,10265.9375
46.18,8579.3125,10265.625
46.2,8579.0625,10265.0
46.22,8578.625,10264.625
46.24,8578.4375,10264.4375
46.26,8578.0625,10263.8125
46.28,8577.8125,10263.5625
46.300000000000004,8577.625,10263.375
46.32,8577.875,10263.5
46.34,8577.8125,10263.0
46.36,8577.8125,10262.875
46.38,8577.0,10262.5625
46.4,8577.25,10262.5625
46.42,8576.8125,10262.5
46.44,8576.6875,10262.4375
46.46,8576.75,10262.25
46.480000000000004,8575.9375,10261.8125
46.5,8575.75,10261.8125
46.52,8575.75,10261.5
46.54,8575.6875,10261.625
46.56,8575.625,10262.0
46.58,8575.6875,10262.125
46.6,8575.75,10262.375
46.62,8575.9375,10262.1875
46.64,8575.9375,10262.5625
46.660000000000004,8576.0,10262.875
46.68,8575.875,10263.0625
46.7,8576.1875,10262.875
46.72,8576.4375,10263.25
46.74,8576.4375,10263.3125
46.76,8576.4375,10263.75
46.78,8576.4375,10263.875
46.800000000000004,8576.5,10264.1875
46.82,8577.1875,10264.75
46.84,8577.0,10264.875
46.86,8577.6875,10265.75
46.88,8578.1875,10266.0625
46.9,8578.25,10266.625
46.92,8578.1875,10266.75
46.94,8578.875,10268.0625
46.96,8579.0625,10268.5
46.980000000000004,8579.625,10268.5625
47.0,8579.4375,10268.125
47.02,8579.4375,10267.375
47.04,8580.0625,10267.625
47.06,8580.125,10268.125
47.08,8580.4375,10268.375
47.1,8580.75,10268.5625
47.12,8581.125,10268.625
47.14,8581.3125,10268.4375
47.160000000000004,8581.25,10268.8125
47.18,8581.6875,10269.4375
47.2,8582.125,10269.125
47.22,8582.625,10269.75
47.24,8582.6875,10269.6875
47.26,8582.5,10269.0
47.28,8582.875,10269.75
47.300000000000004,8582.9375,10269.5
47.32,8583.25,10269.875
47.34,8583.125,10270.25
47.36,8584.0,10270.5
47.38,8584.125,10271.0
47.4,8584.25,10271.0625
47.42,8584.5,10271.0625
47.44,8584.9375,10271.3125
47.46,8585.4375,10271.8125
47.480000000000004,8585.75,10272.0625
47.5,8586.0625,10272.6875
47.52,8586.3125,10272.5625
47.54,8586.375,10272.75
47.56,8586.3125,10273.25
47.58,8586.6875,10273.625
47.6,8587.0625,10273.625
47.62,8586.9375,10273.875
47.64,8587.3125,10274.0
47.660000000000004,8587.875,10274.25
47.68,8587.875,10274.6875
47.7,8588.0,10275.0
47.72,8587.9375,10275.125
47.74,8588.0,10275.4375
47.76,8588.4375,10275.5
47.78,8588.625,10275.625
47.800000000000004,8589.0625,10276.1875
47.82,8589.25,10276.0
47.84,8589.3125,10275.5
47.86,8589.25,10275.375
47.88,8589.1875,10274.875
47.9,8589.1875,10274.6875
47.92,8588.875,10274.3125
47.94,8588.875,10273.5625
47.96,8588.5,10273.25
47.980000000000004,8588.1875,10272.625
48.0,8588.125,10272.75
48.02,8588.125,10272.6875
48.04,8588.1875,10272.625
48.06,8588.25,10272.25
48.08,8587.9375,10271.625
48.1,8588.0625,10271.625
48.120000000000005,8587.625,10272.0
48.14,8587.5,10271.3125
48.160000000000004,8587.1875,10271.25
48.18,8587.5,10271.3125
48.2,8587.375,10271.1875
48.22,8587.625,10271.5
48.24,8587.5,10271.3125
48.26,8587.1875,10270.9375
48.28,8587.125,10270.75
48.300000000000004,8587.25,10271.4375
48.32,8587.25,10271.5
48.34,8587.375,10271.375
48.36,8587.25,10271.3125
48.38,8587.375,10271.5
48.4,8587.0625,10271.5
48.42,8587.375,10271.25
48.44,8587.1875,10271.375
48.46,8587.25,10271.8125
48.480000000000004,8587.1875,10271.75
48.5,8587.5,10271.6875
48.52,8587.4375,10271.6875
48.54,8587.4375,10272.125
48.56,8587.3125,10272.0
48.58,8587.375,10272.0625
48.6,8587.4375,10272.25
48.620000000000005,8587.3125,10272.0
48.64,8587.125,10271.5625
48.660000000000004,8586.9375,10271.25
48.68,8586.9375,10270.875
48.7,8586.75,10270.25
48.72,8586.3125,10269.6875
48.74,8586.1875,10269.0
48.76,8585.75,10268.5
48.78,8585.9375,10268.125
48.800000000000004,8585.375,10267.5625
48.82,8585.3125,10267.0
48.84,8585.0,10266.9375
48.86,8584.6875,10266.375
48.88,8584.9375,10267.0
48.9,8584.8125,10266.4375
48.92,8584.5,10265.9375
48.94,8584.3125,10266.4375
48.96,8584.25,10266.1875
48.980000000000004,8584.3125,10265.8125
49.0,8583.375,10265.75
49.02,8583.8125,10265.5
49.04,8583.375,10265.375
49.06,8583.5625,10265.5
49.08,8583.5625,10265.8125
49.1,8583.25,10265.9375
49.120000000000005,8583.4375,10266.0625
49.14,8583.125,10266.0
49.160000000000004,8583.25,10266.375
49.18,8583.0,10266.3125
49.2,8583.0,10266.5
49.22,8583.125,10266.8125
49.24,8583.25,10266.875
49.26,8583.1875,10267.0
49.28,8583.375,10267.375
49.300000000000004,8583.3125,10267.9375
49.32,8583.8125,10268.3125
49.34,8583.875,10268.4375
49.36,8583.6875,10268.375
49.38,8583.625,10268.375
49.4,8583.625,10268.5625
49.42,8583.8125,10269.1875
49.44,8584.25,10269.8125
49.46,8584.75,10270.4375
49.480000000000004,8584.4375,10270.0
49.5,8584.0625,10269.5625
49.52,8584.1875,10269.3125
49.54,8584.25,10269.0
49.56,8584.125,10269.25
49.58,8584.125,10269.1875
49.6,8583.9375,10268.6875
49.620000000000005,8584.0625,10268.3125
49.64,8584.125,10268.25
49.660000000000004,8584.1875,10268.25
49.68,8584.25,10268.375
49.7,8584.25,10268.5
49.72,8584.25,10268.875
49.74,8584.0625,10268.5
49.76,8583.875,10268.0625
49.78,8584.25,10268.75
49.800000000000004,8584.375,10269.1875
49.82,8584.3125,10268.8125
49.84,8584.625,10269.0625
49.86,8584.25,10268.625
49.88,8584.5,10268.5625
49.9,8584.4375,10269.3125
49.92,8584.75,10269.25
49.94,8584.9375,10270.125
49.96,8584.875,10269.9375
49.980000000000004,8584.6875,10269.875
50.0,8585.0625,10270.0625
50.02,8584.9375,10270.6875
50.04,8585.125,10270.6875
50.06,8585.125,10270.8125
50.08,8585.4375,10270.9375
50.1,8585.25,10271.25
50.120000000000005,8585.8125,10271.8125
50.14,8585.6875,10272.375
50.160000000000004,8586.0,10272.6875
50.18,8586.3125,10273.4375
50.2,8586.6875,10273.875
50.22,8586.75,10274.25
50.24,8587.25,10275.0
50.26,8587.3125,10275.625
50.28,8587.875,10275.9375
50.300000000000004,8588.1875,10276.375
50.32,8588.375,10276.75
50.34,8588.75,10276.4375
50.36,8588.5,10276.0625
50.38,8588.75,10276.1875
50.4,8589.0625,10276.375
50.42,8589.1875,10276.625
50.44,8589.25,10276.625
50.46,8589.3125,10276.25
50.480000000000004,8589.5,10276.0625
50.5,8589.6875,10276.5625
50.52,8589.25,10276.875
50.54,8590.125,10276.1875
50.56,8589.6875,10277.0
50.58,8589.9375,10276.875
50.6,8590.125,10276.9375
50.620000000000005,8590.125,10277.375
50.64,8590.5,10276.9375
50.660000000000004,8590.25,10277.0625
50.68,8590.25,10277.0
50.7,8590.5625,10277.25
50.72,8590.4375,10277.3125
50.74,8590.875,10277.625
50.76,8590.875,10277.625
50.78,8590.625,10277.625
50.800000000000004,8590.8125,10277.75
50.82,8590.6875,10277.625
50.84,8591.125,10277.8125
50.86,8591.0,10277.8125
50.88,8590.9375,10277.75
50.9,8591.0625,10278.25
50.92,8591.5,10278.625
50.94,8591.6875,10278.4375
50.96,8591.5625,10278.3125
50.980000000000004,8591.4375,10278.5
51.0,8591.5,10278.8125
51.02,8591.6875,10278.3125
51.04,8591.75,10278.625
51.06,8591.4375,10278.3125
51.08,8591.3125,10278.25
51.1,8591.8125,10278.1875
51.120000000000005,8591.8125,10278.5625
51.14,8591.625,10278.75
51.160000000000004,8591.0625,10278.0625
51.18,8590.8125,10277.25
51.2,8590.375,10276.5625
51.22,8590.5625,10276.25
51.24,8590.0625,10275.875
51.26,8589.75,10275.625
51.28,8589.3125,10275.125
51.300000000000004,8589.0625,10274.4375
51.32,8588.9375,10273.9375
51.34,8588.9375,10273.375
51.36,8588.6875,10273.1875
51.38,8588.375,10272.8125
51.4,8588.3125,10272.5625
51.42,8588.25,10272.375
51.44,8587.9375,10272.6875
51.46,8588.4375,10272.6875
51.480000000000004,8588.3125,10273.0625
51.5,8588.0,10272.25
51.52,8588.0,10272.1875
51.54,8587.5625,10272.0625
51.56,8587.375,10272.3125
51.58,8587.5,10272.0625
51.6,8587.0,10272.0
51.620000000000005,8587.375,10272.0
51.64,8587.125,10272.25
51.660000000000004,8587.3125,10272.25
51.68,8586.8125,10272.4375
51.7,8587.0,10272.5625
51.72,8587.0625,10272.625
51.74,8587.375,10272.8125
51.76,8587.4375,10273.25
51.78,8587.5,10273.5625
51.800000000000004,8587.5,10273.5625
51.82,8587.5625,10273.6875
51.84,8587.6875,10273.9375
51.86,8587.4375,10273.9375
51.88,8587.5,10274.25
51.9,8587.5625,10274.875
51.92,8588.0,10274.875
51.94,8587.75,10275.0625
51.96,8587.1875,10275.75
51.980000000000004,8588.0625,10275.8125
52.0,8587.6875,10275.5
52.02,8587.75,10275.8125
52.04,8587.625,10276.125
52.06,8587.75,10275.875
52.08,8587.8125,10275.75
52.1,8587.4375,10275.5625
52.120000000000005,8587.8125,10275.4375
52.14,8587.25,10274.875
52.160000000000004,8587.125,10274.625
52.18,8587.0625,10274.375
52.2,8586.8125,10274.0
52.22,8586.6875,10274.125
52.24,8586.5625,10273.625
52.26,8586.375,10273.375
52.28,8586.375,10273.3125
52.300000000000004,8586.4375,10273.625
52.32,8586.125,10273.4375
52.34,8586.0,10273.875
52.36,8586.5,10273.25
52.38,8586.25,10273.4375
52.4,8586.375,10273.4375
52.42,8586.25,10273.5
52.44,8585.875,10273.25
52.46,8586.0625,10273.5
52.480000000000004,8585.875,10273.5625
52.5,8585.875,10273.5625
52.52,8585.8125,10273.375
52.54,8585.625,10273.75
52.56,8585.8125,10273.5
52.58,8585.875,10273.8125
52.6,8585.8125,10273.5625
52.620000000000005,8586.3125,10274.375
52.64,8586.3125,10274.375
52.660000000000004,8586.125,10274.8125
52.68,8586.8125,10274.8125
52.7,8586.875,10274.9375
52.72,8586.9375,10275.6875
52.74,8587.25,10276.1875
52.76,8587.6875,10276.75
52.78,8587.875,10276.9375
52.800000000000004,8588.125,10277.4375
52.82,8588.375,10277.9375
52.84,8588.4375,10278.0
52.86,8588.8125,10278.5625
52.88,8588.875,10278.5625
52.9,8589.125,10279.25
52.92,8589.8125,10279.4375
52.94,8590.0625,10279.375
52.96,8590.3125,10279.5625
52.980000000000004,8590.3125,10279.5
53.0,8590.1875,10279.0
53.02,8590.5625,10279.25
53.04,8590.5625,10278.75
53.06,8590.625,10278.625
53.08,8590.625,10278.5625
53.1,8590.875,10278.8125
53.120000000000005,8591.3125,10278.75
53.14,8591.125,10278.0
53.160000000000004,8591.3125,10278.125
53.18,8590.9375,10278.0
53.2,8591.25,10277.9375
53.22,8591.0625,10277.5625
53.24,8591.125,10277.25
53.26,8591.0,10277.0
53.28,8590.5,10276.875
53.300000000000004,8590.4375,10276.5625
53.32,8590.6875,10276.6875
53.34,8591.25,10276.8125
53.36,8591.1875,10276.5625
53.38,8591.0,10276.75
53.4,8591.125,10276.4375
53.42,8591.1875,10276.9375
53.44,8591.0625,10277.0
53.46,8590.875,10276.75
53.480000000000004,8591.3125,10276.875
53.5,8591.25,10276.625
53.52,8591.5625,10276.75
53.54,8591.875,10277.0625
53.56,8591.375,10277.0625
53.58,8591.125,10276.8125
53.6,8591.25,10277.125
53.620000000000005,8591.625,10277.5625
53.64,8591.5625,10277.75
53.660000000000004,8591.625,10277.6875
53.68,8592.0625,10277.8125
53.7,8591.8125,10277.5625
53.72,8591.875,10277.25
53.74,8591.375,10277.5625
53.76,8591.9375,10277.75
53.78,8591.625,10276.6875
53.800000000000004,8591.6875,10276.3125
53.82,8590.875,10274.6875
53.84,8590.75,10274.6875
53.86,8590.3125,10273.6875
53.88,8590.25,10272.8125
53.9,8589.625,10272.3125
53.92,8589.8125,10271.875
53.94,8589.375,10271.25
53.96,8589.0,10270.5
53.980000000000004,8588.875,10269.9375
54.0,8589.0625,10269.8125
54.02,8588.75,10269.5
54.04,8588.375,10268.8125
54.06,8588.125,10268.4375
54.08,8587.75,10267.6875
54.1,8587.5,10267.375
54.120000000000005,8587.0,10267.5
54.14,8586.5625,10266.625
54.160000000000004,8586.5625,10266.75
54.18,8586.25,10265.75
54.2,8585.8125,10266.25
54.22,8585.5625,10265.5625
54.24,8585.6875,10265.8125
54.26,8584.875,10265.5625
54.28,8584.3125,10265.6875
54.300000000000004,8584.9375,10265.3125
54.32,8584.6875,10265.4375
54.34,8584.75,10266.1875
54.36,8584.625,10266.0
54.38,8584.4375,10265.8125
54.4,8584.1875,10266.0
54.42,8584.5,10266.25
54.44,8584.625,10266.6875
54.46,8584.375,10266.9375
54.480000000000004,8584.1875,10267.25
54.5,8584.4375,10266.875
54.52,8584.125,10266.8125
54.54,8584.125,10267.25
54.56,8583.875,10267.4375
54.58,8583.8125,10268.0625
54.6,8583.375,10268.1875
54.620000000000005,8583.5625,10267.5
54.64,8583.5,10267.75
54.660000000000004,8583.4375,10267.0625
54.68,8583.5625,10266.9375
54.7,8583.375,10267.0
54.72,8583.0625,10266.3125
54.74,8582.875,10266.375
54.76,8582.625,10265.8125
54.78,8581.75,10265.3125
54.800000000000004,8581.9375,10265.25
54.82,8581.9375,10264.9375
54.84,8581.8125,10265.0
54.86,8582.0625,10265.125
54.88,8582.3125,10265.3125
54.9,8581.8125,10265.0625
54.92,8581.4375,10264.875
54.94,8581.4375,10264.625
54.96,8581.5,10264.5625
54.980000000000004,8581.625,10265.125
55.0,8581.5,10265.0625
55.02,8581.375,10265.0625
55.04,8581.375,10265.0
55.06,8581.5,10265.75
55.08,8581.9375,10265.9375
55.1,8582.125,10265.9375
55.120000000000005,8581.875,10265.9375
55.14,8581.9375,10266.5625
55.160000000000004,8582.0625,10266.375
55.18,8582.0625,10266.4375
55.2,8582.0,10266.9375
55.22,8582.375,10266.6875
55.24,8582.3125,10267.0625
55.26,8582.1875,10267.125
55.28,8582.4375,10267.4375
55.300000000000004,8582.5625,10267.9375
55.32,8582.75,10268.0625
55.34,8582.9375,10268.125
55.36,8582.75,10268.125
55.38,8582.5,10268.375
55.4,8582.875,10268.9375
55.42,8582.625,10268.875
55.44,8583.0625,10269.4375
55.46,8582.875,10269.0625
55.480000000000004,8583.0625,10269.3125
55.5,8582.875,10268.875
55.52,8582.75,10268.625
55.54,8582.8125,10268.375
55.56,8582.8125,10268.25
55.58,8582.75,10267.9375
55.6,8583.0625,10267.75
55.620000000000005,8582.75,10267.875
55.64,8582.8125,10268.125
55.660000000000004,8582.75,10267.9375
55.68,8582.6875,10267.0
55.7,8582.5,10267.125
55.72,8582.875,10267.75
55.74,8582.75,10267.4375
55.76,8582.6875,10267.1875
55.78,8582.625,10267.5625
55.800000000000004,8582.375,10267.3125
55.82,8582.5,10267.5625
55.84,8582.5625,10267.5625
55.86,8582.6875,10267.75
55.88,8582.25,10267.4375
55.9,8582.4375,10267.9375
55.92,8582.5625,10267.8125
55.94,8582.875,10268.3125
55.96,8582.6875,10268.1875
55.980000000000004,8582.6875,10267.9375
56.0,8582.625,10268.4375
56.02,8582.625,10268.9375
56.04,8582.8125,10269.0
56.06,8583.0625,10269.0625
56.08,8582.625,10269.0625
56.1,8582.375,10269.25
56.120000000000005,8582.75,10269.1875
56.14,8583.3125,10270.125
56.160000000000004,8583.3125,10270.1875
56.18,8583.125,10270.375
56.2,8583.25,10270.375
56.22,8583.3125,10270.75
56.24,8583.25,10271.0
56.26,8584.0625,10271.5
56.28,8584.0,10272.0
56.300000000000004,8583.75,10272.125
56.32,8584.125,10272.3125
56.34,8584.375,10272.625
56.36,8584.3125,10272.625
56.38,8584.0625,10272.0
56.4,8584.125,10272.25
56.42,8583.625,10271.1875
56.44,8583.875,10271.3125
56.46,8583.75,10271.0
56.480000000000004,8583.625,10271.0
56.5,8583.8125,10270.9375
56.52,8583.25,10270.6875
56.54,8583.5625,10270.375
56.56,8583.5625,10270.625
56.58,8583.75,10271.125
56.6,8583.5625,10270.875
56.620000000000005,8583.625,10270.875
56.64,8583.4375,10270.6875
56.660000000000004,8583.4375,10270.875
56.68,8583.4375,10270.9375
56.7,8583.75,10271.0625
56.72,8583.875,10271.5625
56.74,8583.25,10271.75
56.76,8583.5,10271.3125
56.78,8583.5,10271.125
56.800000000000004,8583.25,10271.4375
56.82,8583.6875,10272.1875
56.84,8583.9375,10272.4375
56.86,8583.75,10272.4375
56.88,8583.9375,10272.5625
56.9,8584.0625,10272.9375
56.92,8583.875,10272.8125
56.94,8583.625,10273.25
56.96,8583.8125,10273.4375
56.980000000000004,8583.875,10273.0625
57.0,8583.75,10273.5625
57.02,8583.75,10273.5625
57.04,8583.875,10274.0
57.06,8584.0625,10274.5625
57.08,8583.9375,10274.875
57.1,8584.1875,10275.0625
57.120000000000005,8584.4375,10275.5625
57.14,8584.25,10275.625
57.160000000000004,8584.375,10275.4375
57.18,8584.5,10276.0
57.2,8584.4375,10276.3125
57.22,8584.5625,10276.875
57.24,8584.75,10276.6875
57.26,8584.4375,10276.3125
57.28,8584.375,10276.125
57.300000000000004,8584.3125,10276.0
57.32,8583.875,10276.25
57.34,8583.9375,10275.625
57.36,8583.75,10275.375
57.38,8584.0,10275.25
57.4,8583.75,10275.3125
57.42,8583.875,10275.3125
57.44,8583.8125,10275.125
57.46,8583.625,10274.875
57.480000000000004,8583.75,10274.875
57.5,8583.875,10275.1875
57.52,8583.9375,10275.3125
57.54,8584.125,10275.3125
57.56,8583.8125,10275.375
57.58,8583.9375,10275.5
57.6,8583.8125,10275.9375
57.620000000000005,8584.125,10276.1875
57.64,8584.5,10276.6875
57.660000000000004,8584.4375,10276.4375
57.68,8584.375,10276.625
57.7,8584.5625,10277.0625
57.72,8584.6875,10277.4375
57.74,8585.125,10278.0625
57.76,8585.125,10278.1875
57.78,8585.3125,10278.1875
57.800000000000004,8585.0,10278.375
57.82,8585.5625,10278.75
57.84,8585.875,10279.3125
57.86,8585.75,10279.1875
57.88,8585.875,10279.1875
57.9,8586.5,10279.875
57.92,8586.5,10280.8125
57.94,8587.0625,10281.1875
57.96,8587.3125,10281.3125
57.980000000000004,8587.5,10281.5625
58.0,8587.8125,10281.75
58.02,8588.0625,10282.5
58.04,8588.0,10282.8125
58.06,8588.3125,10283.0
58.08,8588.125,10283.375
58.1,8588.6875,10283.875
58.120000000000005,8589.375,10283.9375
58.14,8589.25,10284.375
58.160000000000004,8589.625,10284.0625
58.18,8589.4375,10283.75
58.2,8589.8125,10284.0625
58.22,8589.75,10284.5
58.24,8590.0625,10284.5
58.26,8590.0625,10283.75
58.28,8590.1875,10283.6875
58.300000000000004,8590.5625,10284.125
58.32,8590.375,10283.9375
58.34,8590.375,10284.25
58.36,8590.75,10284.625
58.38,8590.75,10284.6875
58.4,8590.625,10284.25
58.42,8590.625,10284.375
58.44,8590.625,10284.25
58.46,8590.75,10284.75
58.480000000000004,8590.5625,10284.5625
58.5,8590.9375,10284.6875
58.52,8591.375,10285.3125
58.54,8591.125,10285.0
58.56,8591.0,10285.5
58.58,8591.8125,10285.625
58.6,8591.6875,10285.5
58.620000000000005,8591.4375,10286.1875
58.64,8592.0,10286.1875
58.660000000000004,8592.25,10286.375
58.68,8592.1875,10286.5
58.7,8592.5625,10286.4375
58.72,8592.375,10286.875
58.74,8592.6875,10286.9375
58.76,8592.875,10286.6875
58.78,8592.5625,10286.6875
58.800000000000004,8592.8125,10286.5625
58.82,8592.875,10286.375
58.84,8592.25,10286.1875
58.86,8592.875,10286.25
58.88,8592.5625,10286.4375
58.9,8592.5,10286.5625
58.92,8592.6875,10286.625
58.94,8592.3125,10286.125
58.96,8592.6875,10286.25
58.980000000000004,8592.3125,10286.5625
59.0,8592.5625,10286.5
59.02,8592.25,10285.875
59.04,8592.125,10285.5
59.06,8591.75,10285.375
59.08,8591.1875,10284.75
59.1,8591.4375,10284.125
59.120000000000005,8591.125,10283.3125
59.14,8590.8125,10283.0
59.160000000000004,8590.625,10283.125
59.18,8590.5625,10282.3125
59.2,8590.375,10282.125
59.22,8589.6875,10281.75
59.24,8590.375,10281.9375
59.26,8589.6875,10281.375
59.28,8589.5,10281.6875
59.300000000000004,8589.0,10281.1875
59.32,8588.8125,10281.0
59.34,8588.8125,10281.1875
59.36,8588.625,10281.0625
59.38,8588.4375,10281.0625
59.4,8588.5,10280.8125
59.42,8588.1875,10280.875
59.44,8588.3125,10280.5625
59.46,8587.875,10280.5
59.480000000000004,8587.875,10280.375
59.5,8587.625,10280.5625
59.52,8587.75,10280.5625
59.54,8587.3125,10280.8125
59.56,8587.5,10280.75
59.58,8586.9375,10280.625
59.6,8586.8125,10280.5625
59.620000000000005,8586.6875,10280.375
59.64,8586.5,10280.6875
59.660000000000004,8586.25,10280.8125
59.68,8586.125,10280.6875
59.7,8585.875,10280.75
59.72,8585.1875,10280.6875
59.74,8585.6875,10280.5
59.76,8585.3125,10280.75
59.78,8585.3125,10281.0625
59.800000000000004,8585.25,10281.25
59.82,8585.25,10281.1875
59.84,8585.125,10281.1875
59.86,8584.8125,10280.8125
59.88,8584.875,10281.375
59.9,8584.75,10280.5
59.92,8584.375,10280.0625
59.94,8584.1875,10279.4375
59.96,8583.9375,10279.125
59.980000000000004,8583.75,10278.9375
60.0,8583.6875,10278.1875
60.02,8583.3125,10278.5
60.04,8583.375,10278.0625
60.06,8583.0625,10278.125
60.08,8583.375,10277.6875
60.1,8583.3125,10277.875
60.120000000000005,8583.375,10277.75
60.14,8583.25,10277.375
60.160000000000004,8583.125,10277.25
60.18,8583.0625,10277.1875
60.2,8583.0625,10277.3125
60.22,8583.0,10277.3125
60.24,8583.25,10277.1875
60.26,8583.0,10277.4375
60.28,8582.5625,10276.5625
60.300000000000004,8582.3125,10276.875
60.32,8582.375,10276.875
60.34,8582.625,10276.9375
60.36,8582.375,10277.125
60.38,8582.3125,10276.5625
60.4,8582.25,10276.9375
60.42,8582.1875,10276.5625
60.44,8582.375,10277.0625
60.46,8582.3125,10277.5
60.480000000000004,8582.25,10276.9375
60.5,8582.375,10277.1875
60.52,8582.1875,10277.25
60.54,8582.3125,10277.5
60.56,8582.5625,10277.9375
60.58,8582.5,10278.0625
60.6,8582.25,10277.875
60.620000000000005,8582.625,10277.8125
60.64,8582.3125,10277.8125
60.660000000000004,8582.875,10278.4375
60.68,8582.8125,10278.875
60.7,8583.3125,10279.0
60.72,8583.375,10279.5
60.74,8583.5,10279.8125
60.76,8583.9375,10279.8125
60.78,8584.125,10279.75
60.800000000000004,8584.25,10279.625
60.82,8584.25,10279.6875
60.84,8584.5,10279.6875
60.86,8584.875,10279.4375
60.88,8584.875,10279.4375
60.9,8585.25,10279.25
60.92,8585.0625,10279.5
60.94,8585.0,10279.625
60.96,8585.375,10279.5625
60.980000000000004,8585.5625,10279.6875
61.0,8585.625,10279.6875
61.02,8585.8125,10279.4375
61.04,8586.25,10279.875
61.06,8586.125,10280.0
61.08,8586.25,10279.9375
61.1,8586.75,10280.1875
61.120000000000005,8587.125,10280.5625
61.14,8587.3125,10281.0
61.160000000000004,8587.375,10280.8125
61.18,8588.0,10281.3125
61.2,8588.0,10281.4375
61.22,8588.3125,10281.75
61.24,8588.1875,10281.625
61.26,8588.6875,10281.875
61.28,8589.0625,10282.25
61.300000000000004,8589.125,10282.625
61.32,8588.75,10282.4375
61.34,8589.125,10282.4375
61.36,8589.3125,10282.75
61.38,8589.625,10283.0
61.4,8589.9375,10283.5625
61.42,8589.8125,10283.5625
61.44,8590.6875,10283.875
61.46,8590.6875,10284.25
61.480000000000004,8590.6875,10284.0
61.5,8590.75,10284.5625
61.52,8591.3125,10285.3125
61.54,8591.25,10285.5625
61.56,8591.5,10285.5
61.58,8591.9375,10286.125
61.6,8592.25,10285.625
61.620000000000005,8592.0,10285.3125
61.64,8591.875,10285.5
61.660000000000004,8591.75,10285.5625
61.68,8591.625,10285.5
61.7,8591.375,10285.1875
61.72,8591.625,10284.75
61.74,8591.75,10284.5625
61.76,8591.75,10284.875
61.78,8591.5625,10284.25
61.800000000000004,8591.5625,10284.4375
61.82,8591.6875,10283.9375
61.84,8591.5625,10283.75
61.86,8591.375,10283.25
61.88,8591.25,10282.875
61.9,8591.125,10282.625
61.92,8590.875,10282.375
61.940000000000005,8590.875,10281.875
61.96,8590.75,10282.0
61.980000000000004,8591.0625,10281.875
62.0,8590.8125,10281.5625
62.02,8590.5625,10281.3125
62.04,8590.3125,10281.125
62.06,8590.4375,10281.4375
62.08,8590.5625,10281.5
62.1,8590.3125,10280.5
62.120000000000005,8590.5,10280.25
62.14,8590.25,10280.5
62.160000000000004,8590.5625,10280.875
62.18,8590.6875,10280.75
62.2,8590.4375,10280.25
62.22,8590.25,10280.125
62.24,8590.1875,10280.0625
62.26,8589.75,10280.3125
62.28,8589.75,10280.0625
62.300000000000004,8589.6875,10280.1875
62.32,8589.0625,10279.625
62.34,8589.1875,10279.8125
62.36,8589.0625,10280.0625
62.38,8588.8125,10280.1875
62.4,8588.6875,10280.0625
62.42,8588.375,10279.8125
62.440000000000005,8587.9375,10278.9375
62.46,8587.6875,10278.75
62.480000000000004,8587.5625,10278.625
62.5,8587.5,10278.3125
62.52,8587.375,10277.8125
62.54,8587.125,10277.375
62.56,8586.6875,10276.8125
62.58,8586.625,10276.625
62.6,8586.375,10276.5625
62.620000000000005,8585.75,10276.0625
62.64,8585.75,10275.875
62.660000000000004,8585.5625,10275.9375
62.68,8585.1875,10275.875
62.7,8585.1875,10275.625
62.72,8585.25,10275.6875
62.74,8584.75,10275.5
62.76,8584.375,10275.4375
62.78,8584.9375,10275.875
62.800000000000004,8584.4375,10275.625
62.82,8584.4375,10276.0625
62.84,8584.25,10276.0
62.86,8584.25,10275.6875
62.88,8584.75,10276.3125
62.9,8584.375,10276.5
62.92,8584.4375,10276.625
62.940000000000005,8584.4375,10277.0625
62.96,8584.4375,10277.0
62.980000000000004,8584.5,10276.75
63.0,8584.375,10277.5
63.02,8584.625,10277.5
63.04,8584.1875,10277.6875
63.06,8584.875,10278.0
63.08,8585.3125,10278.25
63.1,8585.1875,10278.75
63.120000000000005,8585.3125,10279.0625
63.14,8585.625,10279.375
63.160000000000004,8585.625,10278.9375
63.18,8585.5625,10279.6875
63.2,8585.9375,10280.1875
63.22,8585.9375,10280.6875
63.24,8586.0625,10280.4375
63.26,8586.0,10280.5
63.28,8586.125,10280.375
63.300000000000004,8586.0625,10280.125
63.32,8586.125,10280.125
63.34,8585.8125,10280.0
63.36,8585.8125,10279.8125
63.38,8586.0625,10279.8125
63.4,8586.1875,10279.625
63.42,8586.0625,10279.625
63.440000000000005,8585.875,10279.4375
63.46,8586.375,10279.875
63.480000000000004,8586.625,10280.375
63.5,8586.5625,10280.4375
63.52,8587.0625,10280.375
63.54,8586.75,10280.25
63.56,8586.8125,10280.5625
63.58,8587.125,10281.0625
63.6,8587.3125,10281.0625
63.620000000000005,8587.4375,10281.5625
63.64,8587.625,10281.25
63.660000000000004,8587.8125,10281.6875
63.68,8588.0,10281.625
63.7,8587.9375,10281.75
63.72,8587.9375,10282.0
63.74,8588.5,10282.5
63.76,8588.75,10283.125
63.78,8588.9375,10283.3125
63.800000000000004,8589.1875,10283.75
63.82,8589.875,10283.9375
63.84,8590.1875,10284.3125
63.86,8590.3125,10285.0
63.88,8590.5,10284.9375
63.9,8590.625,10285.1875
63.92,8590.75,10285.5
63.940000000000005,8591.3125,10285.9375
63.96,8591.3125,10285.75
63.980000000000004,8591.3125,10286.0
64.0,8591.6875,10286.8125
64.02,8591.625,10286.6875
64.04,8592.0,10287.1875
64.06,8592.6875,10287.375
64.08,8593.0,10288.375
64.1,8592.875,10288.0625
64.12,8592.875,10287.8125
64.14,8593.1875,10287.8125
64.16,8593.25,10288.0
64.18,8593.25,10288.0
64.2,8593.25,10287.8125
64.22,8593.1875,10287.5625
64.24,8593.375,10287.1875
64.26,8593.4375,10287.6875
64.28,8593.5625,10287.6875
64.3,8593.25,10287.4375
64.32000000000001,8593.9375,10287.5625
64.34,8593.9375,10287.9375
64.36,8594.1875,10289.125
64.38,8594.375,10289.375
64.4,8594.5,10289.5625
64.42,8594.4375,10289.625
64.44,8593.8125,10289.25
64.46000000000001,8593.4375,10288.5625
64.48,8592.375,10287.9375
64.5,8591.9375,10287.3125
64.52,8591.125,10286.4375
64.54,8590.875,10286.5
64.56,8590.1875,10285.8125
64.58,8589.75,10285.625
64.6,8589.4375,10285.5
64.62,8588.5,10285.25
64.64,8588.25,10285.5
64.66,8587.8125,10285.5625
64.68,8587.0625,10284.6875
64.7,8586.375,10284.3125
64.72,8585.9375,10284.9375
64.74,8585.5,10285.0
64.76,8584.625,10284.8125
64.78,8584.125,10285.1875
64.8,8583.4375,10284.9375
64.82000000000001,8582.8125,10284.0625
64.84,8582.5,10284.125
64.86,8581.75,10284.1875
64.88,8581.625,10284.5625
64.9,8580.9375,10284.5625
64.92,8580.5,10284.5625
64.94,8580.1875,10284.375
64.96000000000001,8579.3125,10284.0
64.98,8578.875,10283.125
65.0,8578.1875,10282.5
65.02,8578.125,10282.0
65.04,8577.4375,10282.0
65.06,8577.0,10281.5625
65.08,8576.875,10280.875
65.1,8576.0625,10280.4375
65.12,8576.0625,10280.0625
65.14,8575.9375,10280.125
65.16,8576.0,10280.3125
65.18,8575.9375,10280.4375
65.2,8575.9375,10280.25
65.22,8575.4375,10280.4375
65.24,8575.6875,10280.3125
65.26,8575.625,10280.1875
65.28,8575.5625,10280.25
65.3,8575.5,10280.375
65.32000000000001,8575.5625,10280.375
65.34,8575.4375,10280.875
65.36,8575.75,10280.625
65.38,8575.3125,10280.5625
65.4,8575.5,10280.8125
65.42,8575.375,10280.6875
65.44,8575.375,10280.8125
65.46000000000001,8575.625,10281.0625
65.48,8575.625,10281.4375
65.5,8575.8125,10281.625
65.52,8575.5625,10281.5625
65.54,8575.5,10281.375
65.56,8575.625,10281.625
65.58,8575.375,10281.5625
65.6,8575.4375,10281.6875
65.62,8575.0625,10281.125
65.64,8574.75,10281.4375
65.66,8574.8125,10281.625
65.68,8574.625,10281.625
65.7,8574.4375,10281.5625
65.72,8574.5625,10281.6875
65.74,8574.25,10281.875
65.76,8574.625,10282.0
65.78,8574.4375,10282.25
65.8,8574.25,10282.125
65.82000000000001,8573.6875,10281.6875
65.84,8573.4375,10281.0
65.86,8573.125,10280.75
65.88,8573.0,10280.1875
65.9,8572.375,10279.625
65.92,8572.125,10279.125
65.94,8572.125,10278.75
65.96000000000001,8571.625,10278.1875
65.98,8571.625,10277.4375
66.0,8571.25,10277.0
66.02,8571.1875,10277.0
66.04,8571.0,10276.4375
66.06,8570.8125,10276.1875
66.08,8570.875,10276.0
66.1,8570.625,10276.0
66.12,8570.5625,10275.3125
66.14,8570.4375,10275.5625
66.16,8570.5,10275.125
66.18,8570.5625,10274.875
66.2,8570.0625,10274.4375
66.22,8570.0625,10274.5
66.24,8570.0625,10273.6875
66.26,8570.125,10274.1875
66.28,8570.0625,10273.875
66.3,8570.25,10273.25
66.32000000000001,8570.1875,10272.75
66.34,8570.0,10272.125
66.36,8570.1875,10272.125
66.38,8570.375,10272.0625
66.4,8570.25,10271.5625
66.42,8569.9375,10271.5
66.44,8570.125,10271.375
66.46000000000001,8570.5,10270.75
66.48,8570.75,10271.125
66.5,8570.375,10271.125
66.52,8570.375,10271.4375
66.54,8570.4375,10271.375
66.56,8570.0625,10270.9375
66.58,8570.25,10271.0
66.6,8569.8125,10271.625
66.62,8569.8125,10271.5
66.64,8569.9375,10271.6875
66.66,8569.4375,10271.9375
66.68,8569.1875,10271.6875
66.7,8568.6875,10271.1875
66.72,8568.25,10270.5625
66.74,8567.875,10269.9375
66.76,8567.25,10269.1875
66.78,8567.1875,10269.4375
66.8,8567.125,10269.375
66.82000000000001,8566.6875,10268.9375
66.84,8566.5,10269.0625
66.86,8566.25,10269.1875
66.88,8566.375,10269.1875
66.9,8566.1875,10269.1875
66.92,8565.75,10268.8125
66.94,8565.625,10269.1875
66.96000000000001,8565.875,10268.9375
66.98,8565.875,10269.25
67.0,8565.75,10269.625
67.02,8566.0,10269.5625
67.04,8565.3125,10269.6875
67.06,8565.875,10270.0
67.08,8565.25,10269.625
67.1,8565.375,10269.6875
67.12,8565.25,10269.5625
67.14,8565.25,10269.875
67.16,8564.875,10269.375
67.18,8564.9375,10269.4375
67.2,8564.8125,10269.0625
67.22,8564.9375,10269.5
67.24,8564.6875,10269.6875
67.26,8564.9375,10269.9375
67.28,8565.1875,10270.5625
67.3,8565.5,10271.1875
67.32000000000001,8565.8125,10271.4375
67.34,8565.4375,10271.5625
67.36,8565.3125,10271.625
67.38,8565.375,10272.0
67.4,8565.8125,10272.125
67.42,8566.1875,10272.6875
67.44,8566.1875,10273.0625
67.46000000000001,8566.0,10273.0
67.48,8566.1875,10273.0625
67.5,8566.6875,10273.75
67.52,8566.8125,10274.1875
67.54,8566.6875,10273.8125
67.56,8566.4375,10273.3125
67.58,8566.3125,10273.25
67.6,8566.3125,10273.125
67.62,8565.9375,10272.3125
67.64,8566.0,10272.125
67.66,8565.8125,10272.5
67.68,8565.9375,10272.75
67.7,8566.0,10272.375
67.72,8566.0625,10272.25
67.74,8565.875,10272.3125
67.76,8566.0625,10272.125
67.78,8565.75,10271.5625
67.8,8565.5625,10271.5625
67.82000000000001,8565.875,10271.8125
67.84,8566.0,10272.1875
67.86,8565.8125,10272.5625
67.88,8566.0625,10272.6875
67.9,8566.5,10272.875
67.92,8566.3125,10272.8125
67.94,8566.25,10272.375
67.96000000000001,8566.0625,10272.3125
67.98,8566.0,10271.9375
68.0,8565.625,10271.9375
68.02,8565.5,10272.375
68.04,8565.4375,10272.0625
68.06,8565.1875,10272.0
68.08,8565.1875,10271.75
68.1,8564.9375,10271.9375
68.12,8564.8125,10272.25
68.14,8565.1875,10272.1875
68.16,8565.375,10271.875
68.18,8565.3125,10272.0625
68.2,8565.3125,10272.5
68.22,8565.5,10272.875
68.24,8565.0625,10272.625
68.26,8564.875,10272.5625
68.28,8564.875,10271.875
68.3,8564.875,10272.75
68.32000000000001,8564.9375,10271.875
68.34,8564.625,10272.125
68.36,8564.5,10272.5
68.38,8564.1875,10272.1875
68.4,8563.75,10271.4375
68.42,8563.5625,10271.1875
68.44,8563.75,10271.3125
68.46000000000001,8563.3125,10270.8125
68.48,8563.0625,10270.625
68.5,8562.3125,10269.6875
68.52,8562.3125,10269.6875
68.54,8562.25,10269.5625
68.56,8562.3125,10270.0
68.58,8561.875,10269.875
68.60000000000001,8561.875,10270.0
68.62,8561.1875,10270.25
68.64,8561.125,10270.1875
68.66,8561.125,10270.9375
68.68,8560.8125,10271.125
68.7,8560.3125,10270.75
68.72,8559.6875,10269.9375
68.74,8559.0625,10269.8125
68.76,8558.25,10269.6875
68.78,8558.1875,10270.0625
68.8,8558.125,10271.0
68.82000000000001,8557.6875,10271.125
68.84,8557.3125,10270.75
68.86,8556.4375,10271.1875
68.88,8556.3125,10271.75
68.9,8556.375,10272.375
68.92,8556.125,10273.375
68.94,8556.0625,10273.8125
68.96000000000001,8556.0625,10274.4375
68.98,8555.9375,10274.75
69.0,8556.125,10276.125
69.02,8556.0625,10276.5
69.04,8556.125,10277.25
69.06,8556.375,10278.125
69.08,8556.875,10278.8125
69.10000000000001,8557.0,10279.6875
69.12,8557.125,10280.125
69.14,8557.625,10280.6875
69.16,8557.9375,10281.625
69.18,8558.1875,10281.875
69.2,8558.75,10282.3125
69.22,8559.1875,10283.625
69.24,8560.0625,10284.625
69.26,8560.375,10285.125
69.28,8560.3125,10285.125
69.3,8560.1875,10285.0625
69.32000000000001,8560.6875,10285.0
69.34,8561.375,10285.5
69.36,8561.5,10285.75
69.38,8561.75,10285.9375
69.4,8562.0625,10285.75
69.42,8561.625,10286.125
69.44,8562.625,10286.75
69.46000000000001,8562.5625,10286.875
69.48,8562.75,10287.25
69.5,8563.3125,10287.75
69.52,8563.5,10287.9375
69.54,8563.125,10288.0625
69.56,8563.5,10288.0625
69.58,8563.375,10288.125
69.60000000000001,8563.6875,10288.25
69.62,8563.4375,10288.625
69.64,8563.4375,10288.5
69.66,8563.5,10288.5
69.68,8563.875,10288.5
69.7,8563.5,10288.75
69.72,8564.1875,10289.5625
69.74,8564.3125,10289.9375
69.76,8564.5,10290.4375
69.78,8564.9375,10290.4375
69.8,8564.75,10290.625
69.82000000000001,8564.6875,10290.8125
69.84,8565.0,10291.1875
69.86,8565.3125,10291.8125
69.88,8565.4375,10292.3125
69.9,8565.6875,10292.6875
69.92,8566.0,10293.4375
69.94,8565.875,10293.375
69.96000000000001,8566.375,10293.6875
69.98,8566.8125,10294.25
70.0,8566.875,10294.9375
70.02,8566.75,10295.0
70.04,8567.0,10295.0625
70.06,8566.875,10295.625
70.08,8566.8125,10296.0
70.10000000000001,8567.0,10296.6875
70.12,8567.1875,10296.125
70.14,8566.6875,10296.1875
70.16,8567.25,10296.0625
70.18,8566.875,10295.625
70.2,8566.625,10295.3125
70.22,8566.1875,10295.25
70.24,8566.0,10294.8125
70.26,8565.75,10294.625
70.28,8565.8125,10295.0
70.3,8565.5,10294.625
70.32000000000001,8565.25,10294.5
70.34,8564.9375,10294.9375
70.36,8565.0625,10294.9375
70.38,8565.125,10295.1875
70.4,8564.75,10295.3125
70.42,8564.5625,10295.125
70.44,8564.5,10294.8125
70.46000000000001,8564.5,10295.25
70.48,8564.375,10295.9375
70.5,8564.375,10296.3125
70.52,8564.8125,10296.3125
70.54,8564.9375,10296.75
70.56,8565.0,10297.125
70.58,8565.4375,10297.4375
70.60000000000001,8565.5625,10298.1875
70.62,8565.8125,10298.25
70.64,8565.75,10298.125
70.66,8565.875,10298.75
70.68,8565.875,10299.1875
70.7,8566.5625,10299.75
70.72,8566.375,10300.0625
70.74,8566.5,10299.9375
70.76,8566.625,10300.25
70.78,8566.625,10300.625
70.8,8567.25,10301.125
70.82000000000001,8567.0,10301.3125
70.84,8567.3125,10302.0
70.86,8567.5625,10303.0
70.88,8567.8125,10303.0625
70.9,8568.0625,10303.625
70.92,8568.625,10304.6875
70.94,8569.0,10304.8125
70.96000000000001,8568.8125,10304.8125
70.98,8568.75,10304.5
71.0,8568.1875,10304.0625
71.02,8568.6875,10304.3125
71.04,8568.875,10304.375
71.06,8568.3125,10303.6875
71.08,8567.8125,10302.875
71.10000000000001,8567.4375,10302.625
71.12,8567.375,10302.3125
71.14,8567.25,10302.1875
71.16,8566.9375,10301.75
71.18,8566.4375,10301.3125
71.2,8566.375,10301.0
71.22,8566.625,10300.8125
71.24,8566.25,10300.5
71.26,8565.75,10300.25
71.28,8566.0625,10299.6875
71.3,8565.1875,10299.3125
71.32000000000001,8565.5,10299.75
71.34,8565.1875,10299.1875
71.36,8565.1875,10298.9375
71.38,8564.8125,10298.5
71.4,8564.6875,10298.125
71.42,8564.625,10298.1875
71.44,8564.3125,10297.9375
71.46000000000001,8564.25,10297.75
71.48,8564.0,10297.5625
71.5,8563.75,10297.375
71.52,8563.5625,10297.375
71.54,8563.5625,10297.25
71.56,8563.5,10297.125
71.58,8571.6875,10200.75
71.60000000000001,8577.875,10187.5
71.62,8575.8125,10197.125
71.64,8567.9375,10199.0
71.66,8567.75,10209.625
71.68,8565.5,10221.125
71.7,8565.0625,10228.1875
71.72,8565.4375,10233.75
71.74,8566.0,10239.125
71.76,8566.9375,10244.8125
71.78,8568.125,10249.75
71.8,8568.875,10253.375
71.82000000000001,8569.5,10255.75
71.84,8569.4375,10257.4375
71.86,8569.8125,10259.1875
71.88,8569.625,10261.25
71.9,8569.75,10262.5
71.92,8570.0625,10264.375
71.94,8569.875,10264.9375
71.96000000000001,8570.5625,10265.8125
71.98,8570.875,10266.9375
72.0,8571.125,10268.4375
72.02,8570.8125,10269.0
72.04,8570.75,10268.6875
72.06,8570.75,10268.9375
72.08,8570.6875,10269.0
72.10000000000001,8570.9375,10269.25
72.12,8570.75,10269.25
72.14,8571.0,10269.5
72.16,8570.875,10269.4375
72.18,8570.875,10269.625
72.2,8570.4375,10269.5
72.22,8570.375,10269.4375
72.24,8570.3125,10269.1875
72.26,8570.375,10269.0625
72.28,8569.875,10268.75
72.3,8569.5,10268.3125
72.32000000000001,8569.1875,10268.375
72.34,8569.0625,10268.6875
72.36,8568.6875,10268.5
72.38,8568.25,10268.5
72.4,8567.8125,10268.5625
72.42,8567.0625,10268.375
72.44,8566.3125,10267.9375
72.46000000000001,8565.4375,10267.0
72.48,8564.75,10267.625
72.5,8564.375,10267.625
72.52,8563.5,10267.1875
72.54,8562.4375,10267.375
72.56,8561.4375,10266.75
72.58,8560.4375,10266.5625
72.60000000000001,8559.3125,10266.125
72.62,8558.0625,10266.0
72.64,8557.6875,10266.75
72.66,8556.5625,10266.5625
72.68,8555.4375,10266.0
72.7,8554.375,10264.6875
72.72,8552.8125,10263.625
72.74,8551.5,10262.375
72.76,8550.25,10262.3125
72.78,8549.4375,10262.0
72.8,8548.3125,10262.125
72.82000000000001,8547.5625,10262.375
72.84,8546.3125,10262.125
72.86,8545.3125,10261.6875
72.88,8544.1875,10262.0625
72.9,8544.0,10262.125
72.92,8543.125,10262.0625
72.94,8542.1875,10262.25
72.96000000000001,8540.875,10261.6875
72.98,8539.875,10261.375
73.0,8538.9375,10261.5
73.02,8538.9375,10261.625
73.04,8538.6875,10262.1875
73.06,8538.9375,10262.6875
73.08,8538.5625,10263.25
73.10000000000001,8538.1875,10263.3125
73.12,8538.0,10263.625
73.14,8538.0625,10264.3125
73.16,8538.0,10264.75
73.18,8537.75,10265.25
73.2,8537.375,10265.5
73.22,8537.1875,10265.875
73.24,8537.0625,10266.0625
73.26,8537.3125,10266.5625
73.28,8537.75,10267.125
73.3,8537.625,10267.5625
73.32000000000001,8537.9375,10268.5625
73.34,8537.8125,10269.0625
73.36,8538.5,10269.625
73.38,8538.9375,10270.5625
73.4,8539.875,10271.0
73.42,8540.4375,10272.125
73.44,8540.875,10273.1875
73.46000000000001,8541.6875,10274.1875
73.48,8542.5,10275.25
73.5,8543.1875,10276.4375
73.52,8544.25,10277.75
73.54,8544.5625,10278.75
73.56,8545.25,10279.8125
73.58,8545.875,10280.75
73.60000000000001,8546.3125,10281.125
73.62,8546.125,10281.5625
73.64,8546.875,10281.9375
73.66,8546.875,10282.5625
73.68,8547.4375,10283.25
73.7,8547.4375,10283.9375
73.72,8547.625,10283.8125
73.74,8548.0625,10284.3125
73.76,8548.3125,10285.1875
73.78,8548.8125,10285.3125
73.8,8549.1875,10286.0625
73.82000000000001,8549.0625,10285.875
73.84,8548.5625,10285.6875
73.86,8548.5,10285.1875
73.88,8548.25,10284.5
73.9,8547.625,10284.5
73.92,8547.625,10284.9375
73.94,8547.625,10284.75
73.96000000000001,8547.625,10284.9375
73.98,8547.4375,10285.4375
74.0,8547.5625,10285.1875
74.02,8547.1875,10286.0
74.04,8547.1875,10286.5625
74.06,8547.5,10287.5
74.08,8547.625,10288.6875
74.10000000000001,8547.5625,10288.8125
74.12,8547.5,10288.8125
74.14,8547.5625,10288.9375
74.16,8547.3125,10288.875
74.18,8547.0625,10288.75
74.2,8546.1875,10287.75
74.22,8545.375,10287.3125
74.24,8544.6875,10286.375
74.26,8544.3125,10285.75
74.28,8543.5625,10285.625
74.3,8543.1875,10285.5625
74.32000000000001,8542.75,10286.1875
74.34,8542.25,10285.4375
74.36,8541.5,10285.0
74.38,8540.75,10284.0625
74.4,8540.0,10283.5
74.42,8539.125,10282.75
74.44,8538.5,10282.0
74.46000000000001,8538.1875,10281.625
74.48,8537.6875,10281.6875
74.5,8537.125,10281.625
74.52,8536.5,10280.6875
74.54,8535.25,10280.125
74.56,8535.0625,10280.375
74.58,8534.9375,10280.9375
74.60000000000001,8534.5,10280.9375
74.62,8534.0625,10280.9375
74.64,8533.8125,10280.625
74.66,8533.25,10280.625
74.68,8533.3125,10281.0625
74.7,8533.4375,10281.125
74.72,8533.4375,10282.0
74.74,8534.3125,10282.875
74.76,8534.625,10283.9375
74.78,8535.5,10285.25
74.8,8536.5625,10287.0
74.82000000000001,8537.5625,10289.1875
74.84,8539.0625,10290.625
74.86,8539.5,10292.125
74.88,8540.1875,10292.8125
74.9,8540.625,10293.0
74.92,8541.0625,10293.9375
74.94,8542.4375,10295.625
74.96000000000001,8543.0625,10296.9375
74.98,8543.8125,10298.25
75.0,8544.5,10299.0625
75.02,8545.625,10300.125
75.04,8546.1875,10301.1875
75.06,8547.5,10302.625
75.08,8548.9375,10304.3125
75.10000000000001,8549.4375,10305.0625
75.12,8550.4375,10306.5625
75.14,8551.75,10308.25
75.16,8552.8125,10309.5625
75.18,8554.0625,10311.0
75.2,8555.125,10311.8125
75.22,8556.625,10312.625
75.24,8557.6875,10313.25
75.26,8558.125,10313.9375
75.28,8559.0,10314.5625
75.3,8560.125,10315.4375
75.32000000000001,8561.0,10316.625
75.34,8562.0,10318.0
75.36,8562.625,10318.5
75.38,8563.6875,10319.25
75.4,8564.1875,10319.625
75.42,8564.625,10319.75
75.44,8565.625,10320.1875
75.46000000000001,8565.5,10320.125
75.48,8565.1875,10319.6875
75.5,8564.9375,10319.0625
75.52,8564.25,10318.4375
75.54,8564.0,10317.8125
75.56,8563.125,10316.875
75.58,8562.5,10316.4375
75.60000000000001,8561.875,10315.875
75.62,8561.5625,10315.875
75.64,8561.1875,10315.625
75.66,8560.625,10315.5625
75.68,8559.8125,10315.4375
75.7,8559.125,10314.5
75.72,8558.125,10313.875
75.74,8558.3125,10313.625
75.76,8558.625,10313.6875
75.78,8558.8125,10314.25
75.8,8559.375,10314.125
75.82000000000001,8559.6875,10314.125
75.84,8560.0,10313.3125
75.86,8560.25,10313.4375
75.88,8560.8125,10313.125
75.9,8561.5625,10313.75
75.92,8562.1875,10314.25
75.94,8562.125,10314.125
75.96000000000001,8562.1875,10313.375
75.98,8562.0,10313.0625
76.0,8561.625,10313.375
76.02,8561.1875,10313.0
76.04,8560.8125,10313.125
76.06,8560.3125,10312.4375
76.08,8559.6875,10311.9375
76.10000000000001,8559.3125,10310.875
76.12,8558.5625,10311.125
76.14,8558.1875,10311.0625
76.16,8557.8125,10311.5
76.18,8557.6875,10311.875
76.2,8557.6875,10311.6875
76.22,8557.3125,10311.3125
76.24,8557.5,10311.75
76.26,8557.375,10311.75
76.28,8556.6875,10311.125
76.3,8555.625,10310.8125
76.32000000000001,8555.8125,10311.375
76.34,8555.3125,10311.5625
76.36,8555.125,10311.375
76.38,8554.8125,10311.125
76.4,8554.4375,10311.1875
76.42,8554.125,10311.5625
76.44,8554.375,10311.8125
76.46000000000001,8554.125,10311.8125
76.48,8553.75,10311.5625
76.5,8553.75,10311.0625
76.52,8553.5,10311.3125
76.54,8552.9375,10311.0625
76.56,8552.8125,10311.0625
76.58,8552.1875,10311.25
76.60000000000001,8551.5,10310.375
76.62,8551.1875,10310.0
76.64,8551.0625,10310.5625
76.66,8550.9375,10310.375
76.68,8550.5625,10310.25
76.7,8550.625,10310.3125
76.72,8551.0,10310.0
76.74,8550.625,10309.5625
76.76,8550.3125,10308.6875
76.78,8550.375,10308.8125
76.8,8550.875,10309.1875
76.82000000000001,8550.9375,10309.5
76.84,8551.25,10309.4375
76.86,8551.125,10309.4375
76.88,8551.4375,10309.875
76.9,8551.875,10310.375
76.92,8552.0625,10310.8125
76.94,8552.75,10311.625
76.96000000000001,8553.3125,10312.0625
76.98,8553.6875,10312.125
77.0,8554.25,10312.6875
77.02,8554.875,10312.9375
77.04,8555.4375,10313.8125
77.06,8556.1875,10314.625
77.08,8557.25,10315.5625
77.10000000000001,8557.875,10316.0
77.12,8558.75,10316.875
77.14,8559.75,10317.75
77.16,8560.3125,10319.125
77.18,8561.1875,10320.125
77.2,8562.5625,10320.75
77.22,8563.5,10322.375
77.24,8564.125,10323.375
77.26,8565.5625,10324.3125
77.28,8566.25,10325.375
77.3,8567.5625,10326.0625
77.32000000000001,8567.9375,10326.9375
77.34,8569.125,10328.125
77.36,8570.0625,10329.125
77.38,8571.0,10330.625
77.4,8572.0625,10331.25
77.42,8572.875,10332.0625
77.44,8573.8125,10333.25
77.46000000000001,8574.625,10334.3125
77.48,8575.25,10335.4375
77.5,8576.1875,10336.0625
77.52,8576.875,10336.6875
77.54,8577.625,10337.25
77.56,8578.25,10337.5
77.58,8578.9375,10337.9375
77.60000000000001,8579.0625,10337.75
77.62,8579.4375,10338.0
77.64,8580.25,10338.625
77.66,8580.375,10339.125
77.68,8580.9375,10339.25
77.7,8582.0,10340.0
77.72,8582.3125,10340.6875
77.74,8582.625,10341.25
77.76,8582.9375,10341.25
77.78,8583.4375,10341.9375
77.8,8583.6875,10342.0625
77.82000000000001,8584.125,10342.1875
77.84,8584.3125,10342.875
77.86,8584.8125,10343.3125
77.88,8585.125,10343.4375
77.9,8585.8125,10343.875
77.92,8585.8125,10343.875
77.94,8586.4375,10343.9375
77.96000000000001,8586.9375,10344.6875
77.98,8587.4375,10345.125
78.0,8587.3125,10344.75
78.02,8587.5,10345.375
78.04,8587.6875,10345.8125
78.06,8587.75,10345.75
78.08,8588.0,10345.9375
78.10000000000001,8588.3125,10346.0
78.12,8588.25,10346.0625
78.14,8588.75,10346.625
78.16,8589.125,10346.75
78.18,8589.125,10346.625
78.2,8589.25,10346.5
78.22,8589.1875,10346.3125
78.24,8589.25,10346.625
78.26,8589.5625,10347.1875
78.28,8589.1875,10346.75
78.3,8588.6875,10345.8125
78.32000000000001,8588.875,10345.3125
78.34,8588.5,10344.6875
78.36,8588.4375,10344.5625
78.38,8588.3125,10344.1875
78.4,8588.4375,10343.8125
78.42,8587.875,10343.1875
78.44,8587.5,10343.0
78.46000000000001,8587.1875,10342.125
78.48,8587.125,10341.5625
78.5,8586.5625,10341.375
78.52,8586.4375,10341.25
78.54,8586.375,10341.3125
78.56,8586.0,10341.4375
78.58,8586.0,10340.875
78.60000000000001,8585.6875,10340.125
78.62,8585.4375,10339.9375
78.64,8585.4375,10340.0625
78.66,8585.8125,10340.5625
78.68,8585.125,10340.125
78.7,8585.375,10340.0625
78.72,8584.9375,10340.125
78.74,8585.4375,10340.3125
78.76,8585.1875,10340.375
78.78,8585.1875,10340.125
78.8,8585.0625,10340.25
78.82000000000001,8585.4375,10340.625
78.84,8585.625,10340.4375
78.86,8585.75,10340.75
78.88,8585.875,10340.8125
78.9,8586.0,10341.0625
78.92,8586.25,10341.25
78.94,8586.0,10341.5
78.96000000000001,8586.25,10341.625
78.98,8586.3125,10342.1875
79.0,8586.75,10342.375
79.02,8586.9375,10342.625
79.04,8586.9375,10342.6875
79.06,8587.4375,10343.3125
79.08,8587.6875,10342.75
79.10000000000001,8587.1875,10342.0625
79.12,8586.6875,10341.1875
79.14,8586.75,10340.9375
79.16,8586.5625,10340.5
79.18,8586.75,10340.125
79.2,8586.75,10339.0
79.22,8586.5625,10339.0625
79.24,8586.6875,10338.5625
79.26,8586.4375,10338.375
79.28,8586.375,10337.875
79.3,8586.6875,10338.125
79.32000000000001,8586.6875,10337.75
79.34,8586.625,10337.6875
79.36,8586.625,10337.6875
79.38,8586.5625,10337.6875
79.4,8587.0625,10337.5625
79.42,8586.9375,10337.125
79.44,8587.1875,10337.0625
79.46000000000001,8587.4375,10337.5
79.48,8587.6875,10337.5
79.5,8587.5,10337.5625
79.52,8587.625,10337.5
79.54,8588.125,10337.4375
79.56,8588.375,10338.25
79.58,8588.625,10338.625
79.60000000000001,8588.9375,10338.5
79.62,8588.6875,10338.0
79.64,8589.3125,10338.8125
79.66,8589.6875,10339.3125
79.68,8589.5625,10339.3125
79.7,8589.6875,10339.1875
79.72,8590.0,10339.4375
79.74,8590.1875,10339.625
79.76,8590.1875,10340.0625
79.78,8590.75,10340.25
79.8,8590.6875,10340.0
79.82000000000001,8590.875,10340.4375
79.84,8591.1875,10340.5625
79.86,8591.1875,10340.375
79.88,8591.3125,10340.4375
79.9,8591.5,10339.8125
79.92,8591.0625,10339.1875
79.94,8591.25,10338.6875
79.96000000000001,8591.25,10338.4375
79.98,8590.9375,10337.375
80.0,8590.9375,10336.8125
80.02,8590.875,10336.375
80.04,8590.625,10336.0
80.06,8591.0,10335.8125
80.08,8590.6875,10335.5
80.10000000000001,8590.375,10334.5
80.12,8590.125,10334.4375
80.14,8589.9375,10333.5
80.16,8589.6875,10333.3125
80.18,8589.625,10332.9375
80.2,8589.875,10332.6875
80.22,8589.75,10332.375
80.24,8590.125,10332.0625
80.26,8589.875,10331.75
80.28,8589.6875,10331.4375
80.3,8590.25,10331.625
80.32000000000001,8589.8125,10331.8125
80.34,8590.25,10331.5625
80.36,8590.0625,10331.5625
80.38,8590.0,10331.375
80.4,8590.0625,10331.375
80.42,8589.9375,10331.0625
80.44,8590.125,10330.75
80.46000000000001,8589.5625,10330.125
80.48,8590.0,10330.4375
80.5,8589.9375,10330.3125
80.52,8590.5,10331.125
80.54,8590.625,10330.75
80.56,8590.6875,10330.6875
80.58,8590.8125,10330.75
80.60000000000001,8590.625,10330.4375
80.62,8590.875,10330.9375
80.64,8590.6875,10330.75
80.66,8590.875,10330.4375
80.68,8590.3125,10329.25
80.7,8590.25,10328.625
80.72,8590.125,10328.125
80.74,8589.5,10327.125
80.76,8589.4375,10325.875
80.78,8588.5625,10324.9375
80.8,8588.0,10323.375
80.82000000000001,8587.3125,10322.375
80.84,8586.8125,10321.9375
80.86,8586.75,10320.75
80.88,8586.125,10320.3125
80.9,8586.625,10320.25
80.92,8585.6875,10319.125
80.94,8585.3125,10318.75
80.96000000000001,8584.75,10317.25
80.98,8584.25,10316.9375
81.0,8583.5,10316.8125
81.02,8583.75,10316.1875
81.04,8583.25,10315.5
81.06,8583.0,10315.0625
81.08,8582.4375,10314.4375
81.10000000000001,8582.1875,10314.5
81.12,8581.6875,10313.9375
81.14,8580.8125,10313.125
81.16,8580.625,10313.1875
81.18,8580.5,10313.0625
81.2,8580.625,10313.1875
81.22,8580.25,10312.9375
81.24,8580.125,10312.75
81.26,8579.625,10312.625
81.28,8579.5,10312.75
81.3,8579.0625,10312.375
81.32000000000001,8579.25,10312.8125
81.34,8579.3125,10312.125
81.36,8579.1875,10312.5625
81.38,8579.0,10312.4375
81.4,8578.8125,10312.8125
81.42,8578.8125,10312.5
81.44,8579.3125,10312.8125
81.46000000000001,8579.25,10312.8125
81.48,8579.3125,10312.9375
81.5,8579.0,10312.9375
81.52,8579.1875,10312.4375
81.54,8578.8125,10312.375
81.56,8578.9375,10311.5625
81.58,8578.9375,10311.25
81.60000000000001,8579.125,10310.6875
81.62,8578.9375,10310.1875
81.64,8578.75,10309.5625
81.66,8579.0625,10308.8125
81.68,8579.375,10308.9375
81.7,8579.6875,10308.9375
81.72,8579.5,10308.75
81.74,8580.0625,10308.8125
81.76,8580.1875,10308.625
81.78,8580.5,10308.9375
81.8,8580.875,10309.0
81.82000000000001,8581.3125,10309.0625
81.84,8581.8125,10309.5625
81.86,8581.625,10309.6875
81.88,8582.375,10310.25
81.9,8583.0,10310.75
81.92,8583.3125,10310.9375
81.94,8583.9375,10311.8125
81.96000000000001,8584.3125,10311.8125
81.98,8584.5,10312.25
82.0,8585.3125,10312.75
82.02,8585.5625,10313.0
82.04,8586.4375,10313.3125
82.06,8586.8125,10314.1875
82.08,8587.25,10314.3125
82.10000000000001,8588.0,10314.75
82.12,8588.4375,10315.8125
82.14,8589.3125,10315.75
82.16,8589.25,10316.4375
82.18,8589.9375,10316.9375
82.2,8590.5,10317.5625
82.22,8591.375,10318.125
82.24,8591.625,10318.6875
82.26,8592.25,10319.0625
82.28,8592.3125,10319.3125
82.3,8593.375,10320.375
82.32000000000001,8593.75,10321.1875
82.34,8594.25,10321.375
82.36,8594.125,10321.8125
82.38,8594.3125,10321.375
82.4,8594.375,10321.5625
82.42,8594.625,10322.0625
82.44,8594.625,10322.8125
82.46000000000001,8594.8125,10323.125
82.48,8594.8125,10323.125
82.5,8595.125,10322.5625
82.52,8595.75,10322.625
82.54,8596.0625,10322.125
82.56,8596.9375,10322.1875
82.58,8597.125,10322.3125
82.60000000000001,8597.8125,10322.0
82.62,8598.0,10322.0625
82.64,8597.875,10321.5
82.66,8598.0625,10321.0
82.68,8598.0625,10320.8125
82.7,8597.875,10320.4375
82.72,8598.25,10320.25
82.74,8598.3125,10320.6875
82.76,8598.0625,10320.1875
82.78,8597.625,10319.625
82.8,8597.375,10318.9375
82.82000000000001,8597.5,10319.0
82.84,8597.625,10319.25
82.86,8597.125,10319.0625
82.88,8597.4375,10318.75
82.9,8597.375,10318.125
82.92,8597.375,10318.4375
82.94,8597.75,10318.1875
82.96000000000001,8597.875,10318.25
82.98,8597.9375,10318.1875
83.0,8598.1875,10317.9375
83.02,8598.25,10318.5
83.04,8599.0625,10319.0
83.06,8599.1875,10318.8125
83.08,8599.0625,10318.625
83.10000000000001,8599.0,10318.5625
83.12,8598.6875,10318.25
83.14,8599.25,10318.875
83.16,8598.9375,10318.625
83.18,8599.5,10318.625
83.2,8599.0,10317.6875
83.22,8599.0,10316.75
83.24,8598.375,10316.0625
83.26,8598.0,10314.9375
83.28,8597.625,10314.0
83.3,8597.3125,10312.9375
83.32000000000001,8597.125,10312.3125
83.34,8596.4375,10311.3125
83.36,8596.625,10310.6875
83.38,8596.3125,10310.4375
83.4,8596.3125,10310.125
83.42,8596.25,10309.8125
83.44,8595.6875,10309.625
83.46000000000001,8595.9375,10309.125
83.48,8595.375,10308.9375
83.5,8596.0625,10308.5625
83.52,8595.4375,10308.5
83.54,8594.875,10307.9375
83.56,8594.125,10307.75
83.58,8594.0,10307.5625
83.60000000000001,8594.25,10307.4375
83.62,8593.6875,10307.0
83.64,8593.4375,10306.8125
83.66,8592.6875,10306.75
83.68,8592.4375,10306.5625
83.7,8591.9375,10306.375
83.72,8591.6875,10305.9375
83.74,8591.5,10305.875
83.76,8591.5,10305.8125
83.78,8591.125,10306.125
83.8,8590.9375,10306.0625
83.82000000000001,8590.8125,10305.875
83.84,8590.5625,10305.8125
83.86,8590.5625,10305.625
83.88,8590.4375,10305.6875
83.9,8590.5,10305.875
83.92,8590.0625,10306.125
83.94,8590.375,10305.9375
83.96000000000001,8590.0625,10306.125
83.98,8589.6875,10306.5
84.0,8590.0625,10307.0
84.02,8589.875,10306.125
84.04,8590.125,10305.8125
84.06,8590.0,10305.125
84.08,8590.3125,10305.375
84.10000000000001,8590.1875,10304.5
84.12,8590.125,10304.3125
84.14,8590.0625,10304.0
84.16,8590.125,10303.5625
84.18,8590.5625,10303.75
84.2,8590.5625,10303.3125
84.22,8591.0625,10303.6875
84.24,8591.4375,10304.3125
84.26,8592.125,10304.75
84.28,8592.4375,10305.375
84.3,8592.875,10305.5
84.32000000000001,8593.25,10305.875
84.34,8593.25,10306.25
84.36,8594.125,10306.5
84.38,8594.25,10307.0625
84.4,8594.8125,10307.6875
84.42,8595.1875,10307.75
84.44,8595.8125,10308.5
84.46000000000001,8596.4375,10309.1875
84.48,8596.8125,10309.875
84.5,8597.0,10310.5
84.52,8597.5625,10310.9375
84.54,8598.4375,10312.1875
84.56,8598.8125,10312.375
84.58,8599.9375,10313.625
84.60000000000001,8600.375,10314.3125
84.62,8600.8125,10315.25
84.64,8601.5625,10315.9375
84.66,8602.4375,10316.75
84.68,8602.6875,10317.5625
84.7,8603.0,10317.75
84.72,8603.875,10318.5
84.74,8604.8125,10319.5
84.76,8605.0625,10320.1875
84.78,8605.375,10320.875
84.8,8605.75,10320.9375
84.82000000000001,8606.0625,10321.125
84.84,8606.5625,10321.0625
84.86,8606.6875,10321.125
84.88,8606.5625,10320.4375
84.9,8606.875,10320.0
84.92,8606.6875,10320.0625
84.94,8607.0,10319.6875
84.96000000000001,8607.1875,10319.875
84.98,8607.125,10319.0625
85.0,8607.125,10318.6875
85.02,8607.125,10318.5
85.04,8607.25,10318.5625
85.06,8607.25,10317.8125
85.08,8606.9375,10318.0
85.10000000000001,8606.875,10317.3125
85.12,8606.6875,10316.875
85.14,8606.5625,10316.875
85.16,8606.625,10317.0625
85.18,8606.9375,10316.3125
85.2,8606.9375,10316.625
85.22,8606.875,10316.5
85.24,8606.875,10316.25
85.26,8606.875,10315.875
85.28,8606.8125,10315.875
85.3,8607.0625,10315.8125
85.32000000000001,8607.0,10315.5
85.34,8606.625,10315.125
85.36,8606.5,10314.3125
85.38,8606.4375,10314.4375
85.4,8606.4375,10314.75
85.42,8606.1875,10314.75
85.44,8605.9375,10314.375
85.46000000000001,8606.0,10314.625
85.48,8606.375,10314.9375
85.5,8606.8125,10315.3125
85.52,8606.625,10315.4375
85.54,8606.6875,10315.625
85.56,8606.5,10315.25
85.58,8606.5625,10314.75
85.60000000000001,8606.1875,10314.125
85.62,8606.6875,10314.3125
85.64,8605.9375,10313.4375
85.66,8606.125,10312.625
85.68,8605.5,10311.875
85.7,8605.5,10311.0625
85.72,8605.5,10311.1875
85.74,8605.25,10310.625
85.76,8605.4375,10310.5625
85.78,8605.1875,10310.0
85.8,8604.9375,10309.6875
85.82000000000001,8604.8125,10309.625
85.84,8604.75,10309.5625
85.86,8605.1875,10309.0625
85.88,8604.5625,10308.5625
85.9,8604.5,10308.75
85.92,8604.75,10308.6875
85.94,8604.6875,10308.5
85.96000000000001,8605.0,10308.1875
85.98,8604.8125,10308.6875
86.0,8604.9375,10308.6875
86.02,8605.0625,10308.9375
86.04,8605.125,10308.875
86.06,8605.3125,10308.9375
86.08,8605.0625,10309.0625
86.10000000000001,8605.3125,10309.0625
86.12,8605.25,10309.4375
86.14,8605.4375,10309.5
86.16,8605.5,10309.8125
86.18,8605.6875,10309.9375
86.2,8605.5625,10309.9375
86.22,8605.5625,10309.8125
86.24,8606.0,10310.125
86.26,8606.25,10311.125
86.28,8605.8125,10311.375
86.3,8605.75,10311.75
86.32000000000001,8605.8125,10311.3125
86.34,8605.5,10311.0
86.36,8605.5,10311.1875
86.38,8605.5625,10311.375
86.4,8605.3125,10311.0625
86.42,8605.3125,10311.1875
86.44,8605.375,10310.9375
86.46000000000001,8605.8125,10311.25
86.48,8605.875,10311.6875
86.5,8606.1875,10311.8125
86.52,8606.0625,10312.1875
86.54,8606.4375,10312.8125
86.56,8606.625,10313.3125
86.58,8606.3125,10313.4375
86.60000000000001,8606.75,10314.1875
86.62,8606.875,10313.5625
86.64,8607.125,10314.6875
86.66,8607.25,10315.125
86.68,8607.625,10315.6875
86.7,8607.75,10315.8125
86.72,8608.0,10316.0
86.74,8608.3125,10316.4375
86.76,8608.3125,10317.1875
86.78,8608.625,10317.4375
86.8,8609.25,10318.4375
86.82000000000001,8609.25,10318.8125
86.84,8609.5625,10319.4375
86.86,8609.875,10319.5625
86.88,8610.0,10320.0625
86.9,8610.0625,10320.625
86.92,8610.3125,10321.3125
86.94,8610.9375,10322.0625
86.96000000000001,8611.5,10322.625
86.98,8612.125,10323.1875
87.0,8611.8125,10323.4375
87.02,8612.0,10323.5625
87.04,8612.375,10323.125
87.06,8612.1875,10323.25
87.08,8612.0625,10323.625
87.10000000000001,8612.0625,10323.4375
87.12,8612.125,10323.625
87.14,8612.3125,10323.5
87.16,8612.125,10323.9375
87.18,8612.5,10324.25
87.2,8612.375,10323.75
87.22,8612.5625,10324.0625
87.24,8613.0,10324.9375
87.26,8613.0,10325.3125
87.28,8613.1875,10325.8125
87.3,8613.5,10325.875
87.32000000000001,8613.4375,10326.0625
87.34,8613.4375,10326.875
87.36,8613.75,10326.5
87.38,8613.9375,10327.0
87.4,8614.1875,10327.125
87.42,8614.1875,10327.4375
87.44,8614.0625,10328.0625
87.46000000000001,8614.75,10328.5625
87.48,8615.0625,10329.25
87.5,8615.375,10329.5625
87.52,8615.375,10329.5625
87.54,8615.6875,10330.4375
87.56,8616.3125,10330.9375
87.58,8616.3125,10331.875
87.60000000000001,8616.625,10331.875
87.62,8617.375,10332.6875
87.64,8617.375,10332.625
87.66,8617.4375,10333.6875
87.68,8617.8125,10334.0
87.7,8618.5,10334.625
87.72,8618.9375,10335.9375
87.74,8618.9375,10336.0
87.76,8619.0625,10335.25
87.78,8619.375,10335.6875
87.8,8619.375,10335.8125
87.82000000000001,8619.25,10335.8125
87.84,8619.0,10335.1875
87.86,8618.8125,10334.75
87.88,8618.9375,10334.625
87.9,8618.5,10334.5625
87.92,8619.0,10334.1875
87.94,8618.75,10333.9375
87.96000000000001,8618.875,10333.6875
87.98,8618.6875,10333.5625
88.0,8618.5,10333.0625
88.02,8618.625,10333.0625
88.04,8618.0625,10332.6875
88.06,8618.125,10332.25
88.08,8617.875,10332.0
88.10000000000001,8618.25,10332.1875
88.12,8618.1875,10332.125
88.14,8618.0625,10332.1875
88.16,8618.0,10332.3125
88.18,8617.8125,10332.375
88.2,8617.8125,10332.0625
88.22,8617.4375,10332.0625
88.24,8617.3125,10331.9375
88.26,8617.0625,10331.5
88.28,8616.875,10331.4375
88.3,8616.5,10331.5
88.32000000000001,8616.375,10331.625
88.34,8616.5,10331.4375
88.36,8616.5,10331.5625
88.38,8616.0625,10331.5625
88.4,8616.125,10332.0625
88.42,8616.25,10331.625
88.44,8616.75,10332.125
88.46000000000001,8616.5625,10332.5625
88.48,8616.375,10332.9375
88.5,8616.3125,10332.875
88.52,8616.0625,10332.5
88.54,8615.9375,10332.0
88.56,8615.125,10331.125
88.58,8615.4375,10330.6875
88.60000000000001,8615.125,10330.5625
88.62,8614.75,10329.8125
88.64,8614.625,10329.9375
88.66,8613.9375,10328.75
88.68,8613.9375,10328.375
88.7,8613.4375,10328.25
88.72,8613.625,10327.9375
88.74,8613.375,10328.0625
88.76,8613.5625,10327.75
88.78,8613.0625,10327.5625
88.8,8612.8125,10327.3125
88.82000000000001,8612.4375,10327.0
88.84,8612.125,10326.8125
88.86,8612.1875,10326.4375
88.88,8612.0625,10326.6875
88.9,8612.0625,10326.5
88.92,8612.0625,10326.6875
88.94,8612.1875,10326.5
88.96000000000001,8612.125,10327.125
88.98,8612.0625,10326.6875
89.0,8612.0625,10327.25
89.02,8612.0,10326.9375
89.04,8611.9375,10326.9375
89.06,8612.125,10327.25
89.08,8612.375,10327.5
89.10000000000001,8612.125,10327.6875
89.12,8611.875,10327.625
89.14,8612.0,10328.125
89.16,8612.25,10328.0625
89.18,8612.6875,10328.1875
89.2,8612.8125,10328.875
89.22,8613.0625,10329.0
89.24,8613.25,10329.3125
89.26,8613.25,10329.4375
89.28,8613.9375,10330.1875
89.3,8613.875,10330.4375
89.32000000000001,8613.75,10330.125
89.34,8613.5625,10329.625
89.36,8613.25,10328.8125
89.38,8613.4375,10328.0625
89.4,8612.875,10327.875
89.42,8613.0,10327.8125
89.44,8613.125,10327.125
89.46000000000001,8612.875,10327.25
89.48,8613.5625,10327.0625
89.5,8613.25,10326.8125
89.52,8613.75,10327.3125
89.54,8614.125,10327.125
89.56,8613.75,10326.8125
89.58,8614.0,10326.625
89.60000000000001,8614.0625,10326.625
89.62,8614.1875,10327.25
89.64,8614.5,10327.3125
89.66,8614.4375,10326.875
89.68,8614.375,10326.75
89.7,8614.9375,10327.0625
89.72,8615.125,10327.6875
89.74,8615.875,10327.8125
89.76,8615.8125,10327.4375
89.78,8615.875,10328.0625
89.8,8616.0625,10328.5625
89.82000000000001,8616.3125,10328.9375
89.84,8616.3125,10328.5625
89.86,8616.625,10328.8125
89.88,8617.0625,10329.375
89.9,8617.625,10329.75
89.92,8617.8125,10330.375
89.94,8618.1875,10329.9375
