0.0,8398.25,10249.5
0.02,8398.6875,10249.6875
0.04,8398.375,10249.3125
0.06,8398.125,10249.25
0.08,8397.875,10248.3125
0.1,8397.5625,10248.0
0.12,8397.0625,10246.25
0.14,8395.25,10244.0625
0.16,8394.25,10241.625
0.18,8393.3125,10239.875
0.2,8392.5625,10238.3125
0.22,8391.875,10236.625
0.24,8390.875,10234.5625
0.26,8389.4375,10232.25
0.28,8388.25,10230.25
0.3,8388.0625,10228.5625
0.32,8387.3125,10227.375
0.34,8386.25,10226.125
0.36,8385.0625,10224.3125
0.38,8383.875,10222.8125
0.4,8383.0625,10221.6875
0.42,8382.6875,10221.3125
0.44,8382.375,10221.0
0.46,8382.0,10220.625
0.48,8381.8125,10220.5
0.5,8381.4375,10220.3125
0.52,8381.0625,10220.0
0.54,8381.0625,10220.0
0.56,8380.9375,10219.875
0.58,8381.0,10219.4375
0.6,8380.8125,10219.125
0.62,8380.4375,10218.75
0.64,8379.875,10218.75
0.66,8379.875,10218.6875
0.68,8379.5,10218.0
0.7000000000000001,8379.375,10218.5
0.72,8379.5625,10218.375
0.74,8379.625,10218.6875
0.76,8378.875,10217.9375
0.78,8379.0625,10218.3125
0.8,8379.375,10219.125
0.8200000000000001,8380.0,10218.8125
0.84,8379.375,10218.375
0.86,8378.375,10216.625
0.88,8377.6875,10216.0
0.9,8377.5,10215.375
0.92,8376.9375,10214.6875
0.9400000000000001,8376.6875,10213.625
0.96,8376.75,10212.1875
0.98,8375.1875,10210.0
1.0,8374.0625,10209.125
1.02,8373.5625,10208.25
1.04,8373.1875,10207.8125
1.06,8372.9375,10207.625
1.08,8372.9375,10207.8125
1.1,8372.625,10208.1875
1.12,8372.3125,10208.6875
1.1400000000000001,8372.3125,10208.9375
1.16,8372.5,10208.6875
1.18,8372.75,10208.6875
1.2,8372.375,10208.5625
1.22,8372.625,10208.75
1.24,8372.4375,10208.625
1.26,8372.3125,10208.875
1.28,8372.5625,10208.75
1.3,8372.8125,10209.375
1.32,8373.125,10210.125
1.34,8372.5625,10210.3125
1.36,8372.875,10210.9375
1.3800000000000001,8373.25,10211.8125
1.4000000000000001,8373.0625,10212.625
1.42,8373.3125,10213.0625
1.44,8373.9375,10213.9375
1.46,8374.25,10214.5625
1.48,8374.625,10216.125
1.5,8375.125,10217.0625
1.52,8375.875,10218.25
1.54,8376.1875,10219.5625
1.56,8376.9375,10220.875
1.58,8377.6875,10222.5
1.6,8378.0625,10223.25
1.62,8379.4375,10225.125
1.6400000000000001,8380.3125,10226.4375
1.6600000000000001,8380.625,10227.125
1.68,8380.6875,10227.4375
1.7,8380.75,10228.0
1.72,8381.0625,10228.4375
1.74,8380.9375,10227.875
1.76,8381.0625,10227.5
1.78,8381.0,10226.9375
1.8,8380.5,10225.9375
1.82,8380.6875,10225.8125
1.84,8380.4375,10225.0625
1.86,8380.625,10225.4375
1.8800000000000001,8381.125,10225.3125
1.9000000000000001,8381.5,10225.75
1.92,8381.0,10225.3125
1.94,8381.25,10225.125
1.96,8381.3125,10225.625
1.98,8381.375,10225.4375
2.0,8381.125,10225.875
2.02,8381.4375,10226.1875
2.04,8381.75,10226.875
2.06,8381.8125,10226.9375
2.08,8382.0625,10227.5625
2.1,8382.375,10228.3125
2.12,8382.375,10228.875
2.14,8382.8125,10229.5
2.16,8383.0625,10230.3125
2.18,8382.5625,10230.0
2.2,8383.125,10231.25
2.22,8383.375,10231.8125
2.24,8383.5625,10232.3125
2.2600000000000002,8383.9375,10233.125
2.2800000000000002,8384.0,10233.625
2.3000000000000003,8384.375,10234.0625
2.32,8384.375,10234.75
2.34,8384.3125,10234.6875
2.36,8384.3125,10235.0
2.38,8384.1875,10235.4375
2.4,8384.4375,10235.5
2.42,8384.5625,10236.25
2.44,8385.125,10236.75
2.46,8384.5625,10236.6875
2.48,8384.25,10236.75
2.5,8383.9375,10236.9375
2.52,8383.75,10236.375
2.54,8383.75,10236.125
2.56,8383.1875,10234.75
2.58,8382.6875,10233.5
2.6,8382.25,10232.9375
2.62,8381.875,10231.4375
2.64,8381.25,10230.25
2.66,8380.8125,10229.5625
2.68,8380.75,10228.9375
2.7,8380.125,10228.25
2.72,8379.5625,10227.6875
2.74,8379.0,10226.75
2.7600000000000002,8378.9375,10226.0625
2.7800000000000002,8378.875,10225.75
2.8000000000000003,8379.0625,10226.0
2.82,8378.4375,10225.0625
2.84,8377.8125,10225.0625
2.86,8377.9375,10224.625
2.88,8377.6875,10224.1875
2.9,8377.125,10223.875
2.92,8377.0625,10224.1875
2.94,8376.8125,10224.25
2.96,8376.5625,10224.625
2.98,8376.1875,10224.5625
3.0,8376.8125,10225.25
3.02,8376.875,10225.5
3.04,8377.5625,10226.0625
3.06,8377.375,10226.375
3.08,8377.625,10226.375
3.1,8377.6875,10226.1875
3.12,8377.6875,10227.3125
3.14,8377.8125,10227.5625
3.16,8377.6875,10227.6875
3.18,8377.6875,10228.5625
3.2,8378.0,10228.875
3.22,8378.125,10229.6875
3.24,8378.25,10229.625
3.2600000000000002,8378.0,10230.1875
3.2800000000000002,8378.1875,10230.8125
3.3000000000000003,8378.4375,10231.5625
3.3200000000000003,8379.0,10231.8125
3.34,8379.25,10231.75
3.36,8379.1875,10231.1875
3.38,8379.0625,10230.1875
3.4,8379.0,10229.3125
3.42,8379.125,10228.4375
3.44,8378.9375,10227.125
3.46,8378.375,10225.5
3.48,8377.375,10223.875
3.5,8377.3125,10223.3125
3.52,8377.5,10223.125
3.54,8377.5,10222.375
3.56,8377.3125,10222.75
3.58,8377.1875,10222.375
3.6,8376.8125,10222.5
3.62,8376.625,10222.75
3.64,8376.625,10222.875
3.66,8376.5,10223.4375
3.68,8377.0625,10223.875
3.7,8377.25,10224.8125
3.72,8378.1875,10225.125
3.74,8378.0,10225.6875
3.7600000000000002,8377.9375,10225.6875
3.7800000000000002,8377.6875,10226.625
3.8000000000000003,8378.3125,10227.625
3.8200000000000003,8378.625,10228.8125
3.84,8379.1875,10229.125
3.86,8379.125,10229.75
3.88,8378.75,10230.25
3.9,8379.0,10231.125
3.92,8379.9375,10232.25
3.94,8380.5625,10233.0625
3.96,8380.75,10233.9375
3.98,8381.375,10235.1875
4.0,8382.4375,10236.5625
4.0200000000000005,8383.0,10237.5
4.04,8383.5,10238.875
4.0600000000000005,8384.3125,10239.625
4.08,8385.5625,10241.375
4.1,8386.5625,10242.625
4.12,8387.3125,10243.0625
4.14,8387.9375,10243.9375
4.16,8388.25,10243.9375
4.18,8388.5625,10244.375
4.2,8388.5,10244.0
4.22,8388.75,10243.5
4.24,8388.9375,10243.0
4.26,8389.4375,10243.0
4.28,8389.5,10242.875
4.3,8389.875,10242.0625
4.32,8389.6875,10242.375
4.34,8389.25,10242.1875
4.36,8389.6875,10242.5625
4.38,8389.6875,10243.125
4.4,8389.875,10243.125
4.42,8390.1875,10244.125
4.44,8390.8125,10244.25
4.46,8391.125,10244.6875
4.48,8391.1875,10244.75
4.5,8391.1875,10245.75
4.5200000000000005,8391.1875,10245.625
4.54,8391.0,10246.375
4.5600000000000005,8390.9375,10246.8125
4.58,8390.5,10247.1875
4.6000000000000005,8390.25,10246.875
4.62,8390.125,10247.4375
4.64,8390.25,10247.9375
4.66,8390.25,10249.1875
4.68,8390.3125,10249.5
4.7,8390.4375,10249.9375
4.72,8390.375,10250.4375
4.74,8390.5,10250.375
4.76,8390.25,10250.3125
4.78,8390.1875,10250.8125
4.8,8390.5,10251.1875
4.82,8390.6875,10252.0
4.84,8390.625,10252.3125
4.86,8391.4375,10253.1875
4.88,8391.625,10253.625
4.9,8391.375,10253.4375
4.92,8390.8125,10253.125
4.94,8390.625,10252.1875
4.96,8390.25,10251.6875
4.98,8389.5,10250.8125
5.0,8389.375,10249.4375
5.0200000000000005,8389.0625,10248.25
5.04,8388.5625,10247.4375
5.0600000000000005,8387.5625,10245.875
5.08,8387.0,10245.0
5.1000000000000005,8386.5625,10244.1875
5.12,8386.4375,10244.1875
5.14,8386.3125,10243.375
5.16,8386.25,10243.0
5.18,8385.625,10242.125
5.2,8385.1875,10241.625
5.22,8385.125,10241.375
5.24,8384.75,10240.6875
5.26,8384.4375,10240.125
5.28,8384.625,10240.5625
5.3,8384.5,10240.1875
5.32,8383.8125,10240.125
5.34,8383.75,10239.9375
5.36,8383.75,10240.375
5.38,8384.0625,10240.5625
5.4,8383.75,10240.3125
5.42,8383.875,10240.3125
5.44,8383.5,10239.9375
5.46,8383.5625,10239.9375
5.48,8383.5,10240.8125
5.5,8383.625,10241.0
5.5200000000000005,8383.5,10240.6875
5.54,8383.3125,10241.0625
5.5600000000000005,8382.625,10241.1875
5.58,8383.0625,10241.6875
5.6000000000000005,8383.0,10241.75
5.62,8383.625,10242.3125
5.64,8383.9375,10243.3125
5.66,8384.0625,10243.0625
5.68,8384.25,10243.0
5.7,8384.9375,10243.3125
5.72,8384.375,10243.0
5.74,8384.5,10242.6875
5.76,8384.8125,10242.4375
5.78,8384.8125,10241.75
5.8,8384.8125,10240.8125
5.82,8384.5625,10239.375
5.84,8384.5,10238.6875
5.86,8384.375,10238.5
5.88,8384.1875,10238.125
5.9,8384.8125,10238.0625
5.92,8384.75,10238.4375
5.94,8385.0625,10238.375
5.96,8384.8125,10238.3125
5.98,8384.875,10238.1875
6.0,8384.75,10238.5
6.0200000000000005,8385.4375,10239.375
6.04,8385.5625,10239.875
6.0600000000000005,8386.25,10240.375
6.08,8386.8125,10241.25
6.1000000000000005,8387.1875,10241.9375
6.12,8387.375,10242.25
6.140000000000001,8387.1875,10242.9375
6.16,8387.5,10244.0
6.18,8388.1875,10244.9375
6.2,8388.5625,10245.75
6.22,8388.9375,10246.9375
6.24,8389.3125,10247.625
6.26,8389.625,10248.625
6.28,8390.1875,10249.625
6.3,8390.0625,10250.1875
6.32,8390.5,10250.875
6.34,8390.875,10251.875
6.36,8391.4375,10252.5625
6.38,8392.0,10253.5625
6.4,8392.6875,10254.5625
6.42,8392.8125,10255.1875
6.44,8393.5,10255.6875
6.46,8393.875,10256.125
6.48,8394.1875,10256.5625
6.5,8394.0625,10256.0
6.5200000000000005,8393.625,10255.5625
6.54,8393.5625,10254.625
6.5600000000000005,8393.4375,10253.4375
6.58,8393.125,10252.25
6.6000000000000005,8392.9375,10251.625
6.62,8392.625,10251.0
6.640000000000001,8392.8125,10250.6875
6.66,8392.375,10250.3125
6.68,8392.6875,10250.8125
6.7,8392.75,10250.6875
6.72,8393.125,10250.75
6.74,8393.4375,10250.8125
6.76,8393.5,10251.375
6.78,8393.5,10251.4375
6.8,8393.8125,10251.4375
6.82,8393.375,10251.75
6.84,8394.0,10252.3125
6.86,8394.0625,10253.0625
6.88,8394.125,10253.625
6.9,8394.5,10254.1875
6.92,8394.75,10254.5
6.94,8394.8125,10255.0625
6.96,8395.125,10256.125
6.98,8395.25,10256.875
7.0,8395.9375,10257.875
7.0200000000000005,8396.125,10259.0
7.04,8396.625,10259.25
7.0600000000000005,8396.75,10259.5
7.08,8396.875,10259.75
7.1000000000000005,8396.8125,10259.875
7.12,8397.375,10260.75
7.140000000000001,8396.9375,10261.375
7.16,8397.0,10261.25
7.18,8396.6875,10261.5625
7.2,8397.3125,10262.5
7.22,8397.4375,10262.5
7.24,8397.0625,10262.5
7.26,8396.4375,10261.9375
7.28,8395.8125,10261.1875
7.3,8395.5,10260.8125
7.32,8395.0,10259.25
7.34,8394.4375,10257.6875
7.36,8393.5625,10256.3125
7.38,8393.1875,10255.0625
7.4,8392.625,10254.25
7.42,8392.1875,10252.9375
7.44,8391.3125,10251.8125
7.46,8390.75,10251.0625
7.48,8390.5625,10251.125
7.5,8390.3125,10251.3125
7.5200000000000005,8390.25,10250.4375
7.54,8390.3125,10250.375
7.5600000000000005,8389.625,10250.0
7.58,8389.875,10249.75
7.6000000000000005,8390.125,10250.0625
7.62,8390.875,10250.0
7.640000000000001,8391.125,10249.875
7.66,8391.0625,10250.3125
7.68,8390.8125,10249.5625
7.7,8390.6875,10249.6875
7.72,8390.5625,10249.8125
7.74,8390.625,10250.0625
7.76,8390.875,10250.0
7.78,8391.5,10250.875
7.8,8391.4375,10251.0625
7.82,8391.3125,10250.875
7.84,8391.875,10251.6875
7.86,8392.0,10252.3125
7.88,8391.625,10251.375
7.9,8391.3125,10251.9375
7.92,8391.1875,10251.8125
7.94,8391.3125,10252.0625
7.96,8392.0625,10252.75
7.98,8392.0,10253.0
8.0,8392.375,10253.0
8.02,8392.375,10253.375
8.040000000000001,8392.375,10253.375
8.06,8392.125,10253.0
8.08,8391.875,10252.75
8.1,8391.9375,10252.3125
8.120000000000001,8391.4375,10251.5
8.14,8391.875,10250.625
8.16,8391.375,10249.5
8.18,8391.5625,10248.375
8.2,8391.75,10248.125
8.22,8391.3125,10247.625
8.24,8391.375,10246.9375
8.26,8391.5625,10246.6875
8.28,8391.8125,10246.8125
8.3,8392.0,10246.9375
8.32,8392.3125,10247.0625
8.34,8393.0625,10248.5625
8.36,8393.5625,10248.5625
8.38,8393.6875,10249.4375
8.4,8393.5,10249.125
8.42,8393.0625,10249.125
8.44,8393.6875,10249.875
8.46,8394.375,10250.875
8.48,8394.75,10251.9375
8.5,8395.125,10252.5625
8.52,8395.5,10253.6875
8.540000000000001,8395.9375,10254.25
8.56,8396.5625,10255.125
8.58,8397.25,10256.9375
8.6,8397.6875,10257.5
8.620000000000001,8398.1875,10258.125
8.64,8398.4375,10258.4375
8.66,8398.9375,10259.375
8.68,8400.5,10260.5625
8.700000000000001,8401.5625,10261.25
8.72,8401.8125,10260.625
8.74,8401.5,10260.25
8.76,8401.1875,10259.8125
8.78,8401.25,10260.5
8.8,8402.3125,10262.25
8.82,8403.3125,10263.25
8.84,8404.75,10264.6875
8.86,8405.1875,10265.75
8.88,8405.625,10266.5
8.9,8405.75,10266.75
8.92,8405.875,10266.75
8.94,8406.5625,10267.8125
8.96,8407.6875,10268.375
8.98,8408.5625,10268.8125
9.0,8409.875,10268.8125
9.02,8409.5625,10267.8125
9.040000000000001,8409.5625,10267.0625
9.06,8409.25,10266.1875
9.08,8409.5,10266.8125
9.1,8410.0625,10267.125
9.120000000000001,8410.5,10267.875
9.14,8411.125,10268.25
9.16,8411.625,10268.75
9.18,8411.8125,10268.5625
9.200000000000001,8412.25,10269.0625
9.22,8412.125,10269.125
9.24,8412.875,10269.5
9.26,8413.3125,10269.625
9.28,8412.8125,10269.9375
9.3,8413.3125,10270.4375
9.32,8413.4375,10270.9375
9.34,8413.5,10271.8125
9.36,8413.75,10272.0625
9.38,8413.75,10272.0
9.4,8413.625,10272.1875
9.42,8414.0625,10272.625
9.44,8413.6875,10272.5625
9.46,8413.25,10272.0
9.48,8412.125,10270.5
9.5,8410.625,10269.4375
9.52,8410.0625,10268.5625
9.540000000000001,8409.0625,10267.6875
9.56,8407.3125,10266.125
9.58,8406.0,10265.4375
9.6,8405.3125,10265.5
9.620000000000001,8405.5625,10267.125
9.64,8406.4375,10268.5625
9.66,8406.125,10268.4375
9.68,8405.0,10267.5
9.700000000000001,8403.4375,10266.0625
9.72,8402.1875,10265.25
9.74,8401.0625,10264.25
9.76,8399.9375,10262.4375
9.78,8398.875,10261.4375
9.8,8398.0,10259.5625
9.82,8397.4375,10258.375
9.84,8397.1875,10257.75
9.86,8396.625,10256.625
9.88,8395.5,10255.1875
9.9,8395.0625,10254.75
9.92,8394.8125,10254.0
9.94,8395.4375,10253.9375
9.96,8395.375,10253.8125
9.98,8395.875,10253.5
10.0,8395.875,10253.3125
10.02,8396.0,10253.3125
10.040000000000001,8395.75,10252.8125
10.06,8395.3125,10252.1875
10.08,8395.0,10252.3125
10.1,8395.25,10252.125
10.120000000000001,8395.5625,10252.0
10.14,8395.3125,10252.125
10.16,8395.25,10251.9375
10.18,8395.4375,10252.5
10.200000000000001,8395.5625,10252.875
10.22,8396.0,10252.8125
10.24,8396.1875,10253.5
10.26,8397.0,10254.5
10.28,8397.375,10255.375
10.3,8397.8125,10255.75
10.32,8397.9375,10256.5625
10.34,8398.6875,10257.5625
10.36,8399.125,10258.0625
10.38,8399.25,10258.3125
10.4,8400.1875,10259.125
10.42,8400.75,10259.75
10.44,8401.0,10260.5625
10.46,8401.4375,10261.1875
10.48,8402.3125,10261.9375
10.5,8402.3125,10262.5625
10.52,8402.375,10263.0625
10.540000000000001,8402.4375,10263.0
10.56,8402.875,10263.625
10.58,8403.625,10263.9375
10.6,8403.875,10263.8125
10.620000000000001,8404.0625,10263.125
10.64,8403.8125,10261.625
10.66,8403.4375,10260.3125
10.68,8402.9375,10259.5
10.700000000000001,8403.5625,10259.0
10.72,8403.9375,10258.1875
10.74,8403.875,10257.5
10.76,8403.75,10256.25
10.78,8403.0,10255.0625
10.8,8402.875,10254.5625
10.82,8403.8125,10254.4375
10.84,8404.25,10254.8125
10.86,8404.9375,10254.9375
10.88,8405.375,10255.125
10.9,8405.6875,10254.875
10.92,8405.875,10255.3125
10.94,8406.125,10255.1875
10.96,8406.8125,10255.875
10.98,8407.5,10256.875
11.0,8408.5625,10258.0625
11.02,8409.9375,10259.8125
11.040000000000001,8411.125,10261.1875
11.06,8411.5,10262.3125
11.08,8412.625,10263.375
11.1,8413.125,10264.1875
11.120000000000001,8414.0,10265.625
11.14,8415.0,10267.1875
11.16,8415.5625,10268.4375
11.18,8416.5,10269.0625
11.200000000000001,8416.75,10269.9375
11.22,8416.75,10270.5
11.24,8417.375,10271.75
11.26,8418.0,10272.4375
11.28,8418.4375,10273.625
11.3,8418.625,10274.0625
11.32,8419.0,10275.125
11.34,8419.25,10276.0
11.36,8419.625,10276.3125
11.38,8419.5,10277.125
11.4,8418.8125,10277.25
11.42,8418.5,10276.9375
11.44,8417.5,10276.5625
11.46,8417.625,10276.6875
11.48,8417.5625,10275.8125
11.5,8417.5625,10275.6875
11.52,8418.0625,10275.625
11.540000000000001,8417.875,10275.5
11.56,8416.875,10274.125
11.58,8416.0625,10272.3125
11.6,8415.0625,10271.3125
11.620000000000001,8415.0,10271.5
11.64,8415.5625,10271.3125
11.66,8416.0,10272.5
11.68,8415.625,10271.125
11.700000000000001,8415.0625,10270.4375
11.72,8414.625,10269.9375
11.74,8414.5625,10269.625
11.76,8414.6875,10269.5
11.78,8414.875,10269.4375
11.8,8415.25,10269.6875
11.82,8414.625,10269.3125
11.84,8414.75,10269.8125
11.86,8414.6875,10270.0
11.88,8414.375,10270.1875
11.9,8414.25,10270.3125
11.92,8414.0625,10270.625
11.94,8413.8125,10270.375
11.96,8414.0,10270.875
11.98,8414.375,10271.8125
12.0,8415.0,10272.4375
12.02,8415.0625,10272.75
12.040000000000001,8414.5,10272.75
12.06,8414.125,10272.75
12.08,8414.0,10272.8125
12.1,8414.0625,10273.1875
12.120000000000001,8414.3125,10273.5
12.14,8414.625,10274.375
12.16,8414.6875,10275.1875
12.18,8414.8125,10275.1875
12.200000000000001,8414.6875,10275.5
12.22,8414.125,10275.0
12.24,8413.9375,10274.6875
12.26,8413.75,10274.25
12.280000000000001,8413.8125,10273.375
12.3,8413.8125,10272.375
12.32,8412.9375,10271.6875
12.34,8412.875,10271.1875
12.36,8412.625,10270.5
12.38,8412.5625,10269.6875
12.4,8412.5,10269.9375
12.42,8413.5,10270.25
12.44,8413.25,10270.125
12.46,8412.6875,10269.8125
12.48,8413.125,10269.875
12.5,8413.875,10271.1875
12.52,8413.875,10270.8125
12.540000000000001,8413.375,10270.25
12.56,8412.5625,10270.25
12.58,8412.4375,10269.9375
12.6,8411.9375,10269.875
12.620000000000001,8411.375,10269.5
12.64,8411.5,10270.3125
12.66,8411.25,10270.625
12.68,8410.8125,10270.5
12.700000000000001,8410.75,10270.9375
12.72,8410.1875,10270.8125
12.74,8409.9375,10270.875
12.76,8410.8125,10271.5625
12.780000000000001,8411.1875,10272.375
12.8,8411.0625,10273.25
12.82,8411.5625,10273.5
12.84,8411.1875,10273.875
12.86,8411.5,10274.0625
12.88,8411.5625,10274.5625
12.9,8411.6875,10275.5
12.92,8411.75,10275.5625
12.94,8411.9375,10276.125
12.96,8412.1875,10276.8125
12.98,8412.5,10277.1875
13.0,8412.6875,10277.9375
13.02,8412.625,10277.625
13.040000000000001,8412.4375,10277.375
13.06,8411.8125,10276.5625
13.08,8411.6875,10275.6875
13.1,8411.375,10274.1875
13.120000000000001,8411.25,10273.375
13.14,8411.125,10272.3125
13.16,8410.8125,10271.5625
13.18,8410.8125,10271.0
13.200000000000001,8410.4375,10270.5625
13.22,8410.5625,10270.125
13.24,8410.25,10269.9375
13.26,8410.3125,10269.75
13.280000000000001,8410.625,10269.9375
13.3,8410.8125,10270.3125
13.32,8411.25,10270.25
13.34,8411.625,10270.625
13.36,8411.6875,10271.5
13.38,8412.4375,10271.375
13.4,8412.75,10271.625
13.42,8412.9375,10272.3125
13.44,8413.375,10272.9375
13.46,8413.8125,10273.375
13.48,8414.5,10274.5625
13.5,8415.0625,10275.375
13.52,8415.0625,10275.9375
13.540000000000001,8415.1875,10276.375
13.56,8415.375,10277.0625
13.58,8416.625,10277.75
13.6,8416.75,10278.5625
13.620000000000001,8416.625,10279.25
13.64,8417.4375,10280.375
13.66,8417.4375,10280.75
13.68,8417.625,10281.5
13.700000000000001,8418.0,10282.125
13.72,8418.1875,10282.6875
13.74,8418.9375,10284.0625
13.76,8418.6875,10284.3125
13.780000000000001,8419.1875,10285.125
13.8,8419.4375,10285.75
13.82,8420.375,10287.0
13.84,8419.8125,10287.25
13.86,8420.1875,10287.4375
13.88,8420.375,10288.0625
13.9,8420.625,10287.8125
13.92,8420.25,10287.125
13.94,8420.5625,10286.0
13.96,8420.1875,10285.3125
13.98,8420.0,10285.0625
14.0,8420.5,10284.25
14.02,8420.25,10283.8125
14.040000000000001,8420.5625,10284.125
14.06,8420.75,10284.375
14.08,8421.0625,10284.875
14.1,8421.125,10284.625
14.120000000000001,8421.875,10284.9375
14.14,8422.25,10285.5
14.16,8422.3125,10286.0
14.18,8422.5625,10285.8125
14.200000000000001,8422.1875,10286.0625
14.22,8422.75,10286.4375
14.24,8423.0,10286.8125
14.26,8422.9375,10286.6875
14.280000000000001,8423.0625,10286.9375
14.3,8422.5625,10286.875
14.32,8422.8125,10287.9375
14.34,8422.875,10288.1875
14.36,8423.25,10288.8125
14.38,8423.625,10289.375
14.4,8423.25,10290.25
14.42,8423.5625,10290.625
14.44,8424.125,10291.625
14.46,8424.5,10291.9375
14.48,8424.3125,10292.0
14.5,8424.1875,10292.25
14.52,8424.6875,10293.0
14.540000000000001,8424.75,10293.5
14.56,8424.75,10293.75
14.58,8424.625,10294.0625
14.6,8424.3125,10294.0625
14.620000000000001,8424.375,10294.75
14.64,8424.3125,10295.0
14.66,8424.625,10295.25
14.68,8423.9375,10295.25
14.700000000000001,8423.375,10294.375
14.72,8423.0,10294.0
14.74,8422.125,10292.5625
14.76,8421.6875,10291.0625
14.780000000000001,8421.375,10290.125
14.8,8421.0,10289.125
14.82,8420.1875,10287.9375
14.84,8419.5,10286.4375
14.86,8418.625,10285.625
14.88,8417.9375,10285.0
14.9,8417.875,10284.8125
14.92,8417.8125,10284.875
14.94,8417.5625,10284.375
14.96,8416.9375,10283.9375
14.98,8416.5625,10283.1875
15.0,8416.0625,10282.8125
15.02,8416.25,10282.75
15.040000000000001,8415.25,10282.4375
15.06,8415.4375,10282.125
15.08,8415.3125,10282.3125
15.1,8415.0625,10282.125
15.120000000000001,8415.5,10282.1875
15.14,8415.1875,10283.125
15.16,8415.3125,10282.4375
15.18,8415.3125,10283.3125
15.200000000000001,8414.9375,10282.6875
15.22,8414.625,10282.5625
15.24,8415.1875,10282.6875
15.26,8414.75,10283.375
15.280000000000001,8414.625,10283.0
15.3,8414.0,10282.0625
15.32,8414.0625,10281.9375
15.34,8413.6875,10281.8125
15.36,8413.625,10281.125
15.38,8413.375,10281.0
15.4,8413.1875,10281.625
15.42,8413.1875,10282.375
15.44,8412.9375,10282.375
15.46,8413.4375,10283.0
15.48,8413.8125,10283.75
15.5,8414.25,10284.25
15.52,8413.9375,10284.1875
15.540000000000001,8414.6875,10284.3125
15.56,8414.4375,10284.1875
15.58,8414.5,10283.6875
15.6,8414.375,10283.0625
15.620000000000001,8414.3125,10282.5
15.64,8414.9375,10282.25
15.66,8415.4375,10281.8125
15.68,8415.25,10281.375
15.700000000000001,8415.625,10282.0625
15.72,8415.9375,10282.0
15.74,8416.25,10282.8125
15.76,8416.5625,10283.3125
15.780000000000001,8417.375,10284.1875
15.8,8417.3125,10284.25
15.82,8417.75,10284.9375
15.84,8417.8125,10285.125
15.860000000000001,8418.3125,10285.3125
15.88,8418.75,10286.25
15.9,8418.9375,10287.0625
15.92,8419.5625,10287.625
15.94,8420.1875,10288.4375
15.96,8420.625,10289.75
15.98,8421.1875,10290.25
16.0,8421.5,10291.125
16.02,8421.6875,10292.25
16.04,8422.3125,10292.9375
16.06,8422.3125,10293.8125
16.080000000000002,8423.375,10294.6875
16.1,8423.75,10295.75
16.12,8423.6875,10296.5
16.14,8424.125,10297.3125
16.16,8424.25,10298.3125
16.18,8424.9375,10298.875
16.2,8425.4375,10300.375
16.22,8425.8125,10300.6875
16.240000000000002,8426.3125,10302.1875
16.26,8426.75,10303.0625
16.28,8426.9375,10303.4375
16.3,8427.875,10304.5
16.32,8428.375,10305.375
16.34,8428.8125,10306.6875
16.36,8429.1875,10307.4375
16.38,8428.9375,10307.5625
16.4,8429.375,10308.0
16.42,8429.6875,10307.9375
16.44,8429.5625,10307.5625
16.46,8429.3125,10306.75
16.48,8429.25,10305.9375
16.5,8428.9375,10304.9375
16.52,8429.0,10304.375
16.54,8428.9375,10303.6875
16.56,8428.1875,10302.9375
16.580000000000002,8428.5,10303.0
16.6,8428.4375,10302.9375
16.62,8428.4375,10303.0625
16.64,8428.5,10303.25
16.66,8428.3125,10303.5
16.68,8428.375,10303.6875
16.7,8428.125,10304.1875
16.72,8428.3125,10304.25
16.740000000000002,8428.1875,10304.4375
16.76,8428.125,10304.875
16.78,8427.75,10305.375
16.8,8427.625,10305.4375
16.82,8427.9375,10306.6875
16.84,8427.6875,10306.75
16.86,8427.6875,10307.0625
16.88,8427.625,10307.5625
16.9,8427.5625,10307.25
16.92,8427.8125,10308.25
16.94,8427.25,10308.125
16.96,8427.3125,10308.4375
16.98,8427.375,10308.5
17.0,8427.625,10309.0
17.02,8427.5,10309.25
17.04,8427.5625,10309.875
17.06,8427.4375,10310.25
17.080000000000002,8427.75,10310.875
17.1,8428.0,10311.25
17.12,8427.6875,10311.3125
17.14,8428.25,10312.0625
17.16,8428.5,10312.5625
17.18,8428.5,10312.875
17.2,8428.625,10313.5
17.22,8428.1875,10313.4375
17.240000000000002,8428.0,10313.3125
17.26,8427.375,10312.5625
17.28,8426.875,10311.6875
17.3,8426.5625,10309.9375
17.32,8426.1875,10309.25
17.34,8425.75,10307.75
17.36,8425.1875,10306.75
17.38,8424.6875,10306.0625
17.400000000000002,8424.5625,10305.1875
17.42,8424.5,10304.625
17.44,8424.0625,10304.625
17.46,8424.25,10304.4375
17.48,8423.8125,10303.6875
17.5,8424.0625,10303.4375
17.52,8423.5,10302.9375
17.54,8423.1875,10303.3125
17.56,8423.3125,10302.9375
17.580000000000002,8423.1875,10303.125
17.6,8423.5625,10303.5
17.62,8423.4375,10303.5625
17.64,8423.75,10303.875
17.66,8423.5625,10304.0
17.68,8423.375,10304.5625
17.7,8423.625,10304.9375
17.72,8423.625,10305.6875
17.740000000000002,8424.125,10306.1875
17.76,8424.25,10306.5
17.78,8424.3125,10306.875
17.8,8424.4375,10307.4375
17.82,8424.5625,10308.0
17.84,8424.8125,10308.375
17.86,8425.125,10308.875
17.88,8425.6875,10309.5
17.900000000000002,8425.4375,10309.9375
17.92,8425.5,10310.375
17.94,8426.0,10310.8125
17.96,8426.0,10311.75
17.98,8426.5,10312.0
18.0,8426.25,10312.5
18.02,8426.8125,10312.875
18.04,8427.3125,10313.8125
18.06,8427.8125,10314.5
18.080000000000002,8427.625,10314.5625
18.1,8427.625,10314.8125
18.12,8427.5625,10314.625
18.14,8427.8125,10314.4375
18.16,8427.5,10313.6875
18.18,8427.25,10312.8125
18.2,8427.0625,10311.875
18.22,8426.625,10311.0625
18.240000000000002,8426.75,10310.5625
18.26,8426.5625,10309.6875
18.28,8426.75,10309.9375
18.3,8427.0,10309.6875
18.32,8427.375,10309.9375
18.34,8427.3125,10309.5625
18.36,8427.4375,10309.6875
18.38,8427.375,10309.25
18.400000000000002,8427.875,10310.0
18.42,8427.875,10310.375
18.44,8428.3125,10310.6875
18.46,8428.5,10311.0625
18.48,8428.5625,10311.0625
18.5,8429.125,10312.0625
18.52,8429.5625,10312.3125
18.54,8429.375,10313.25
18.56,8430.1875,10314.25
18.580000000000002,8430.875,10314.8125
18.6,8431.25,10315.875
18.62,8431.6875,10316.5
18.64,8431.75,10316.9375
18.66,8432.5625,10317.9375
18.68,8432.5625,10318.8125
18.7,8433.6875,10319.3125
18.72,8433.5,10320.1875
18.740000000000002,8434.5,10321.0
18.76,8434.9375,10322.0
18.78,8435.125,10322.625
18.8,8435.9375,10323.3125
18.82,8436.3125,10323.9375
18.84,8436.6875,10324.875
18.86,8437.3125,10325.6875
18.88,8437.6875,10326.8125
18.900000000000002,8438.0625,10327.1875
18.92,8438.375,10328.3125
18.94,8438.875,10329.0
18.96,8439.75,10329.875
18.98,8440.0625,10330.5625
19.0,8440.0625,10331.1875
19.02,8440.1875,10331.625
19.04,8440.125,10331.125
19.06,8440.3125,10330.625
19.080000000000002,8440.125,10329.8125
19.1,8439.9375,10328.5625
19.12,8440.125,10328.0
19.14,8439.125,10326.75
19.16,8439.0,10326.3125
19.18,8438.375,10325.4375
19.2,8438.6875,10325.25
19.22,8438.625,10325.0
19.240000000000002,8438.375,10324.875
19.26,8438.375,10324.5
19.28,8438.125,10324.0
19.3,8437.8125,10324.0625
19.32,8437.625,10324.1875
19.34,8437.25,10323.75
19.36,8436.75,10323.9375
19.38,8436.625,10324.4375
19.400000000000002,8436.5625,10324.375
19.42,8436.75,10324.5
19.44,8436.3125,10324.625
19.46,8436.25,10325.125
19.48,8436.625,10325.5625
19.5,8436.3125,10325.6875
19.52,8436.6875,10325.625
19.54,8436.5,10326.6875
19.56,8436.4375,10326.3125
19.580000000000002,8436.6875,10326.3125
19.6,8436.375,10327.0625
19.62,8436.25,10326.75
19.64,8435.9375,10327.375
19.66,8436.25,10327.25
19.68,8436.375,10327.3125
19.7,8436.0625,10327.6875
19.72,8436.0625,10328.25
19.740000000000002,8436.25,10328.0
19.76,8436.125,10328.75
19.78,8436.25,10328.6875
19.8,8435.8125,10328.75
19.82,8436.0625,10329.75
19.84,8436.5,10329.75
19.86,8436.5,10329.8125
19.88,8436.6875,10330.125
19.900000000000002,8436.25,10330.125
19.92,8436.5625,10330.1875
19.94,8435.875,10329.0
19.96,8435.625,10328.625
19.98,8435.1875,10327.0
20.0,8434.5625,10325.5
20.02,8434.4375,10324.25
20.04,8434.125,10323.375
20.06,8433.6875,10321.625
20.080000000000002,8432.8125,10321.0
20.1,8432.8125,10320.8125
20.12,8432.5625,10319.5
20.14,8432.8125,10319.1875
20.16,8432.3125,10318.25
20.18,8432.125,10317.5625
20.2,8432.0625,10316.625
20.22,8431.4375,10316.25
20.240000000000002,8431.5,10315.75
20.26,8431.3125,10316.125
20.28,8431.6875,10315.75
20.3,8431.5625,10316.25
20.32,8431.625,10316.4375
20.34,8431.6875,10316.6875
20.36,8431.625,10317.0
20.38,8431.75,10317.25
20.400000000000002,8431.6875,10317.375
20.42,8432.125,10317.6875
20.44,8432.375,10317.9375
20.46,8432.5625,10318.375
20.48,8432.375,10319.0
20.5,8432.625,10319.0625
20.52,8432.625,10319.3125
20.54,8432.5625,10319.75
20.56,8432.9375,10320.25
20.580000000000002,8433.3125,10320.5625
20.6,8433.375,10321.1875
20.62,8433.75,10321.9375
20.64,8434.1875,10322.6875
20.66,8434.8125,10323.5
20.68,8435.75,10324.6875
20.7,8436.1875,10325.8125
20.72,8437.0,10326.8125
20.740000000000002,8437.25,10327.875
20.76,8438.0,10328.6875
20.78,8438.75,10329.875
20.8,8439.0,10330.25
20.82,8439.5625,10330.5625
20.84,8439.3125,10331.125
20.86,8440.0625,10331.5
20.88,8439.875,10330.9375
20.900000000000002,8440.25,10329.875
20.92,8439.9375,10328.875
20.94,8439.875,10328.0625
20.96,8439.75,10326.5
20.98,8439.3125,10325.9375
21.0,8439.5625,10325.8125
21.02,8440.125,10326.5625
21.04,8440.125,10325.9375
21.06,8440.0625,10326.3125
21.080000000000002,8440.4375,10325.9375
21.1,8440.8125,10326.375
21.12,8440.5,10326.125
21.14,8441.25,10326.1875
21.16,8440.9375,10326.5625
21.18,8441.0625,10326.625
21.2,8441.5625,10327.0
21.22,8441.75,10327.0625
21.240000000000002,8442.1875,10327.3125
21.26,8442.375,10327.6875
21.28,8442.5,10328.6875
21.3,8443.1875,10329.0625
21.32,8443.1875,10329.875
21.34,8443.5625,10329.8125
21.36,8444.3125,10331.0625
21.38,8445.6875,10331.875
21.400000000000002,8446.875,10333.1875
21.42,8447.3125,10333.6875
21.44,8447.875,10334.1875
21.46,8448.5,10335.0
21.48,8449.6875,10335.625
21.5,8449.75,10335.8125
21.52,8450.625,10336.375
21.54,8450.75,10336.8125
21.56,8451.375,10337.4375
21.580000000000002,8451.875,10338.0
21.6,8451.6875,10338.4375
21.62,8451.375,10338.5625
21.64,8451.4375,10338.5625
21.66,8451.3125,10339.625
21.68,8451.5625,10339.8125
21.7,8451.5625,10339.75
21.72,8451.125,10339.8125
21.740000000000002,8450.3125,10338.9375
21.76,8449.3125,10338.25
21.78,8448.9375,10337.75
21.8,8447.9375,10335.875
21.82,8446.9375,10334.875
21.84,8446.25,10333.1875
21.86,8445.125,10332.125
21.88,8444.875,10331.5625
21.900000000000002,8444.3125,10331.0
21.92,8443.5,10330.4375
21.94,8444.0,10330.125
21.96,8444.0625,10329.875
21.98,8443.5625,10330.0
22.0,8443.375,10329.625
22.02,8443.5,10329.5625
22.04,8442.8125,10329.25
22.06,8442.375,10328.9375
22.080000000000002,8442.375,10329.125
22.1,8442.3125,10328.9375
22.12,8442.1875,10328.8125
22.14,8442.125,10328.75
22.16,8441.9375,10329.1875
22.18,8441.9375,10329.25
22.2,8441.9375,10329.5625
22.22,8442.125,10330.0
22.240000000000002,8442.25,10330.125
22.26,8442.25,10330.5
22.28,8441.9375,10330.9375
22.3,8441.75,10330.6875
22.32,8441.8125,10331.3125
22.34,8442.1875,10331.625
22.36,8442.4375,10332.125
22.38,8442.0625,10332.3125
22.400000000000002,8442.8125,10333.0
22.42,8442.875,10333.5
22.44,8442.625,10334.0
22.46,8442.6875,10333.875
22.48,8442.875,10334.5
22.5,8443.3125,10335.0625
22.52,8443.0625,10335.25
22.54,8443.0625,10335.625
22.56,8443.1875,10336.375
22.580000000000002,8443.875,10336.625
22.6,8443.9375,10336.8125
22.62,8443.4375,10337.3125
22.64,8443.6875,10337.0
22.66,8443.5625,10336.5
22.68,8443.375,10335.875
22.7,8442.8125,10334.75
22.72,8442.4375,10333.5
22.740000000000002,8441.9375,10332.0
22.76,8441.625,10330.3125
22.78,8441.0,10329.3125
22.8,8440.3125,10328.25
22.82,8440.25,10327.5625
22.84,8440.0,10327.1875
22.86,8439.875,10326.5625
22.88,8439.6875,10325.6875
22.900000000000002,8439.375,10325.0
22.92,8439.0,10324.75
22.94,8438.75,10324.3125
22.96,8438.4375,10324.0
22.98,8438.375,10323.875
23.0,8438.1875,10323.6875
23.02,8438.5625,10323.6875
23.04,8438.8125,10323.75
23.06,8438.875,10323.625
23.080000000000002,8438.6875,10323.875
23.1,8438.75,10324.4375
23.12,8439.25,10325.125
23.14,8439.6875,10325.375
23.16,8439.5,10325.6875
23.18,8439.875,10326.0625
23.2,8440.0,10326.5625
23.22,8440.4375,10327.4375
23.240000000000002,8440.5,10327.5
23.26,8440.3125,10328.0625
23.28,8441.0,10328.5
23.3,8441.5,10329.6875
23.32,8441.875,10330.0
23.34,8442.125,10330.6875
23.36,8442.625,10331.375
23.38,8443.375,10332.3125
23.400000000000002,8443.8125,10333.1875
23.42,8444.125,10333.5
23.44,8445.125,10334.9375
23.46,8445.75,10335.75
23.48,8446.25,10336.1875
23.5,8446.25,10336.5625
23.52,8446.5,10337.0
23.54,8447.0625,10337.9375
23.56,8446.875,10337.75
23.580000000000002,8446.75,10337.375
23.6,8447.125,10336.8125
23.62,8447.1875,10336.125
23.64,8447.0625,10336.0625
23.66,8447.0,10335.0
23.68,8446.9375,10334.5
23.7,8446.9375,10334.5
23.72,8446.875,10334.1875
23.740000000000002,8447.5,10334.375
23.76,8447.9375,10334.625
23.78,8447.6875,10334.3125
23.8,8447.625,10333.875
23.82,8448.0625,10333.875
23.84,8448.0,10334.0625
23.86,8448.4375,10334.6875
23.88,8448.5,10334.75
23.900000000000002,8448.4375,10334.75
23.92,8448.6875,10335.0
23.94,8449.25,10335.375
23.96,8449.75,10336.375
23.98,8449.625,10336.6875
24.0,8450.4375,10337.75
24.02,8450.875,10338.25
24.04,8451.3125,10338.6875
24.060000000000002,8451.5,10339.5
24.080000000000002,8452.25,10340.4375
24.1,8452.375,10340.875
24.12,8452.8125,10341.5625
24.14,8453.125,10342.1875
24.16,8453.625,10343.125
24.18,8453.6875,10343.5625
24.2,8454.375,10344.0
24.22,8454.4375,10344.3125
24.240000000000002,8454.625,10345.25
24.26,8455.25,10345.6875
24.28,8455.25,10346.25
24.3,8455.5,10347.25
24.32,8456.4375,10347.875
24.34,8456.125,10348.125
24.36,8456.5625,10348.1875
24.38,8456.3125,10348.1875
24.400000000000002,8456.125,10348.25
24.42,8456.0625,10348.25
24.44,8455.6875,10347.4375
24.46,8455.1875,10346.3125
24.48,8454.75,10345.25
24.5,8454.375,10344.0
24.52,8454.4375,10343.4375
24.54,8453.9375,10342.625
24.560000000000002,8453.5625,10342.0625
24.580000000000002,8453.5625,10341.8125
24.6,8453.5,10341.5
24.62,8453.625,10341.3125
24.64,8453.375,10341.0625
24.66,8453.0,10340.5625
24.68,8452.75,10340.75
24.7,8452.4375,10340.4375
24.72,8452.5,10340.1875
24.740000000000002,8452.5,10340.125
24.76,8452.3125,10339.5
24.78,8452.375,10340.25
24.8,8452.25,10340.0625
24.82,8452.0625,10339.9375
24.84,8451.9375,10340.0625
24.86,8452.125,10340.5625
24.88,8452.1875,10340.3125
24.900000000000002,8451.5625,10340.5
24.92,8452.375,10340.875
24.94,8452.25,10341.5
24.96,8452.4375,10341.8125
24.98,8452.125,10341.6875
25.0,8452.3125,10342.125
25.02,8452.5625,10342.5
25.04,8452.0625,10342.75
25.060000000000002,8451.8125,10343.0625
25.080000000000002,8452.0625,10343.25
25.1,8452.5,10343.6875
25.12,8452.625,10344.0625
25.14,8452.3125,10344.375
25.16,8452.8125,10344.8125
25.18,8452.6875,10345.375
25.2,8452.875,10345.125
25.22,8452.6875,10345.3125
25.240000000000002,8452.4375,10345.125
25.26,8452.375,10344.6875
25.28,8451.5625,10343.875
25.3,8451.4375,10342.6875
25.32,8450.8125,10341.5625
25.34,8450.625,10339.5
25.36,8449.875,10338.3125
25.38,8449.5,10337.4375
25.400000000000002,8449.0625,10336.5625
25.42,8448.6875,10335.8125
25.44,8448.1875,10335.0
25.46,8448.0625,10334.4375
25.48,8447.875,10333.75
25.5,8448.0,10333.875
25.52,8447.8125,10333.125
25.54,8447.5,10332.9375
25.560000000000002,8447.625,10332.5
25.580000000000002,8447.625,10332.625
25.6,8447.75,10332.75
25.62,8447.625,10333.0
25.64,8448.125,10333.25
25.66,8447.8125,10332.9375
25.68,8447.5625,10333.375
25.7,8448.125,10333.8125
25.72,8448.1875,10334.3125
25.740000000000002,8448.3125,10335.0
25.76,8449.0,10335.1875
25.78,8448.8125,10335.3125
25.8,8448.9375,10335.5
25.82,8449.25,10336.0625
25.84,8449.5,10336.5
25.86,8449.4375,10336.25
25.88,8449.3125,10336.8125
25.900000000000002,8449.75,10337.5
25.92,8449.75,10337.75
25.94,8450.5,10338.5
25.96,8450.0625,10338.75
25.98,8450.75,10339.375
26.0,8450.8125,10339.6875
26.02,8451.1875,10340.125
26.04,8452.0,10341.25
26.060000000000002,8452.0625,10341.4375
26.080000000000002,8452.3125,10342.1875
26.1,8452.625,10342.5625
26.12,8452.8125,10342.5
26.14,8452.875,10342.0
26.16,8452.9375,10341.4375
26.18,8452.8125,10340.5
26.2,8452.3125,10338.9375
26.22,8452.5625,10338.0
26.240000000000002,8452.0625,10337.3125
26.26,8452.375,10337.0
26.28,8452.5,10336.75
26.3,8452.3125,10336.1875
26.32,8452.375,10336.125
26.34,8452.5625,10336.625
26.36,8452.9375,10336.5625
26.38,8453.0,10336.3125
26.400000000000002,8453.0625,10336.5625
26.42,8453.3125,10336.875
26.44,8453.9375,10337.3125
26.46,8454.1875,10338.0625
26.48,8454.625,10338.75
26.5,8454.875,10339.1875
26.52,8455.25,10339.75
26.54,8455.375,10340.1875
26.560000000000002,8456.1875,10340.875
26.580000000000002,8456.5,10341.6875
26.6,8457.3125,10342.5625
26.62,8458.125,10343.25
26.64,8458.75,10343.75
26.66,8459.75,10344.3125
26.68,8461.0,10345.625
26.7,8461.625,10346.0625
26.72,8461.6875,10345.9375
26.740000000000002,8462.4375,10346.875
26.76,8463.5625,10348.0
26.78,8465.4375,10349.75
26.8,8466.1875,10350.5
26.82,8466.75,10350.5
26.84,8466.625,10350.6875
26.86,8467.5,10351.25
26.88,8468.125,10351.8125
26.900000000000002,8469.5,10352.4375
26.92,8470.125,10353.1875
26.94,8471.0,10353.5
26.96,8471.75,10354.125
26.98,8471.8125,10354.25
27.0,8472.3125,10354.5625
27.02,8472.25,10353.5625
27.04,8471.875,10352.4375
27.060000000000002,8471.4375,10350.625
27.080000000000002,8470.6875,10348.8125
27.1,8470.75,10347.5625
27.12,8470.5625,10346.75
27.14,8469.875,10345.5625
27.16,8469.6875,10344.1875
27.18,8469.0,10343.5
27.2,8469.1875,10343.125
27.22,8468.8125,10342.375
27.240000000000002,8468.75,10341.75
27.26,8468.875,10341.6875
27.28,8468.3125,10340.75
27.3,8468.0,10340.1875
27.32,8467.625,10340.0
27.34,8467.5625,10339.6875
27.36,8467.3125,10339.0
27.38,8467.0625,10339.125
27.400000000000002,8466.625,10338.625
27.42,8466.75,10338.75
27.44,8466.5,10338.6875
27.46,8466.1875,10338.625
27.48,8465.9375,10338.625
27.5,8466.0,10338.625
27.52,8465.9375,10339.0625
27.54,8466.4375,10339.8125
27.560000000000002,8466.4375,10340.125
27.580000000000002,8466.375,10340.1875
27.6,8465.9375,10340.25
27.62,8466.25,10340.5
27.64,8466.6875,10340.875
27.66,8466.3125,10340.875
27.68,8466.0625,10341.25
27.7,8466.625,10341.1875
27.72,8465.6875,10341.4375
27.740000000000002,8465.5,10341.0
27.76,8465.1875,10341.375
27.78,8465.375,10341.75
27.8,8465.4375,10342.3125
27.82,8465.1875,10342.4375
27.84,8465.3125,10342.9375
27.86,8464.875,10342.5
27.88,8464.5,10341.9375
27.900000000000002,8464.125,10341.0625
27.92,8463.5,10339.625
27.94,8463.125,10338.5
27.96,8462.6875,10337.625
27.98,8462.25,10336.3125
28.0,8461.625,10335.8125
28.02,8460.875,10334.9375
28.04,8460.5,10334.375
28.060000000000002,8460.4375,10333.9375
28.080000000000002,8460.5,10333.8125
28.1,8460.25,10333.0625
28.12,8460.0625,10333.0625
28.14,8459.8125,10332.9375
28.16,8459.875,10333.0625
28.18,8459.9375,10332.875
28.2,8459.6875,10332.4375
28.22,8459.375,10332.375
28.240000000000002,8459.5625,10332.0
28.26,8459.4375,10333.0625
28.28,8459.875,10333.4375
28.3,8459.8125,10333.6875
28.32,8459.6875,10333.5
28.34,8460.0625,10334.6875
28.36,8460.1875,10334.625
28.38,8460.0,10335.25
28.400000000000002,8460.375,10335.4375
28.42,8460.5625,10336.3125
28.44,8461.0,10336.6875
28.46,8461.125,10337.0625
28.48,8461.25,10337.1875
28.5,8461.375,10337.3125
28.52,8461.5625,10338.1875
28.54,8461.5625,10338.6875
28.560000000000002,8461.5625,10338.8125
28.580000000000002,8461.6875,10339.5
28.6,8461.9375,10340.3125
28.62,8462.125,10340.8125
28.64,8462.5625,10341.0
28.66,8462.4375,10341.625
28.68,8462.4375,10342.0625
28.7,8462.75,10342.875
28.72,8462.9375,10343.1875
28.740000000000002,8463.3125,10343.0
28.76,8463.1875,10343.125
28.78,8463.3125,10342.8125
28.8,8463.25,10342.0625
28.82,8463.1875,10341.1875
28.84,8463.5,10340.375
28.86,8463.25,10340.0625
28.88,8463.3125,10339.5625
28.900000000000002,8463.375,10339.625
28.92,8463.9375,10339.3125
28.94,8464.0,10339.9375
28.96,8464.625,10340.25
28.98,8465.0625,10340.0625
29.0,8465.1875,10340.75
29.02,8465.75,10341.5
29.04,8466.3125,10341.8125
29.060000000000002,8466.75,10343.0625
29.080000000000002,8467.125,10343.375
29.1,8467.4375,10344.0
29.12,8467.875,10344.3125
29.14,8467.75,10344.875
29.16,8468.625,10345.625
29.18,8468.8125,10346.6875
29.2,8469.6875,10347.5
29.22,8469.8125,10348.0625
29.240000000000002,8470.125,10348.4375
29.26,8470.4375,10348.5
29.28,8470.6875,10349.25
29.3,8470.9375,10350.125
29.32,8471.5625,10350.8125
29.34,8471.9375,10351.5625
29.36,8472.125,10352.1875
29.38,8472.8125,10352.9375
29.400000000000002,8473.25,10354.125
29.42,8474.0625,10354.9375
29.44,8474.125,10355.5
29.46,8474.5,10356.125
29.48,8474.8125,10356.6875
29.5,8475.875,10357.625
29.52,8476.5625,10358.5
29.54,8477.0,10359.0
29.560000000000002,8477.6875,10359.9375
29.580000000000002,8478.125,10360.3125
29.6,8478.625,10360.375
29.62,8479.0,10361.1875
29.64,8479.25,10361.375
29.66,8478.9375,10360.75
29.68,8478.6875,10360.0625
29.7,8478.6875,10358.6875
29.72,8478.25,10357.9375
29.740000000000002,8478.1875,10356.6875
29.76,8478.375,10355.8125
29.78,8477.9375,10354.5
29.8,8477.6875,10354.3125
29.82,8477.25,10353.625
29.84,8476.875,10353.0625
29.86,8477.375,10352.8125
29.88,8476.625,10352.375
29.900000000000002,8476.6875,10352.4375
29.92,8476.625,10352.4375
29.94,8476.5,10352.3125
29.96,8476.6875,10352.5
29.98,8476.9375,10352.4375
30.0,8477.25,10352.8125
30.02,8477.5625,10353.125
30.04,8477.6875,10353.625
30.060000000000002,8478.0,10353.9375
30.080000000000002,8477.6875,10354.125
30.1,8477.6875,10354.5625
30.12,8478.25,10355.0
30.14,8479.0625,10355.5
30.16,8478.5,10355.3125
30.18,8478.6875,10355.875
30.2,8478.4375,10355.875
30.22,8478.625,10356.5
30.240000000000002,8478.375,10357.0
30.26,8478.3125,10357.375
30.28,8478.875,10358.1875
30.3,8478.625,10357.9375
30.32,8478.75,10358.3125
30.34,8478.25,10358.5625
30.36,8478.6875,10359.375
30.38,8478.9375,10359.5
30.400000000000002,8479.1875,10360.0625
30.42,8479.4375,10360.1875
30.44,8479.625,10360.8125
30.46,8479.5625,10361.5
30.48,8479.5625,10361.75
30.5,8479.375,10361.4375
30.52,8478.9375,10361.4375
30.54,8479.0,10360.875
30.560000000000002,8478.5,10359.8125
30.580000000000002,8477.75,10358.625
30.6,8477.3125,10357.3125
30.62,8476.5625,10355.375
30.64,8476.0,10354.25
30.66,8475.6875,10353.5
30.68,8476.0,10352.9375
30.7,8475.6875,10352.5625
30.72,8475.375,10351.9375
30.740000000000002,8475.375,10351.1875
30.76,8475.3125,10351.125
30.78,8475.4375,10350.75
30.8,8474.9375,10350.375
30.82,8475.125,10350.625
30.84,8474.9375,10350.25
30.86,8474.8125,10350.3125
30.88,8474.1875,10349.875
30.900000000000002,8474.3125,10350.0625
30.92,8474.0625,10350.6875
30.94,8474.125,10350.9375
30.96,8474.375,10351.0625
30.98,8474.0625,10351.4375
31.0,8474.0625,10351.625
31.02,8473.5,10351.875
31.04,8473.6875,10351.9375
31.060000000000002,8473.625,10352.4375
31.080000000000002,8473.8125,10352.9375
31.1,8473.25,10352.875
31.12,8473.5625,10352.875
31.14,8473.5625,10352.75
31.16,8473.1875,10353.3125
31.18,8473.25,10353.625
31.2,8473.0,10354.0625
31.220000000000002,8473.0625,10354.0625
31.240000000000002,8473.125,10354.8125
31.26,8473.5,10355.5
31.28,8473.5625,10355.9375
31.3,8473.4375,10356.5625
31.32,8473.6875,10357.3125
31.34,8474.3125,10358.4375
31.36,8475.125,10359.1875
31.38,8475.4375,10359.8125
31.400000000000002,8475.5,10360.6875
31.42,8475.4375,10360.625
31.44,8475.75,10360.5
31.46,8475.375,10359.875
31.48,8475.0625,10359.375
31.5,8475.375,10358.5
31.52,8474.8125,10358.25
31.54,8475.0,10357.625
31.560000000000002,8474.9375,10357.75
31.580000000000002,8475.0,10357.125
31.6,8474.6875,10357.0
31.62,8474.875,10356.8125
31.64,8474.875,10356.6875
31.66,8475.0,10357.0625
31.68,8474.5625,10357.0625
31.7,8475.0625,10358.0
31.720000000000002,8475.1875,10358.4375
31.740000000000002,8475.25,10359.0
31.76,8476.125,10359.75
31.78,8476.25,10359.9375
31.8,8476.625,10360.5625
31.82,8476.875,10360.9375
31.84,8477.25,10361.4375
31.86,8477.5625,10361.9375
31.88,8477.9375,10363.1875
31.900000000000002,8478.4375,10363.625
31.92,8478.625,10364.3125
31.94,8478.8125,10364.5625
31.96,8478.625,10365.3125
31.98,8479.125,10365.5625
32.0,8479.4375,10366.4375
32.02,8479.4375,10367.0
32.04,8479.25,10367.375
32.06,8479.4375,10367.9375
32.08,8479.5625,10368.6875
32.1,8480.3125,10369.8125
32.12,8481.0,10370.6875
32.14,8481.1875,10371.0625
32.160000000000004,8482.125,10372.375
32.18,8481.875,10372.625
32.2,8482.125,10372.9375
32.22,8482.625,10374.3125
32.24,8482.6875,10375.25
32.26,8483.3125,10375.5
32.28,8483.3125,10376.125
32.3,8483.4375,10375.75
32.32,8483.0,10375.5625
32.34,8483.0,10375.0625
32.36,8482.8125,10374.6875
32.38,8482.75,10373.375
32.4,8481.75,10372.0
32.42,8481.3125,10371.0
32.44,8480.6875,10370.3125
32.46,8480.0,10369.0
32.480000000000004,8479.75,10368.3125
32.5,8479.4375,10368.25
32.52,8479.3125,10367.3125
32.54,8478.5625,10366.75
32.56,8478.5,10366.3125
32.58,8478.4375,10366.3125
32.6,8477.8125,10366.0
32.62,8477.25,10365.6875
32.64,8477.125,10365.1875
32.660000000000004,8477.0,10364.875
32.68,8476.875,10365.25
32.7,8476.5625,10365.375
32.72,8476.4375,10365.375
32.74,8476.625,10365.625
32.76,8476.5,10366.0
32.78,8476.3125,10366.0
32.8,8476.125,10366.1875
32.82,8475.6875,10366.3125
32.84,8475.5,10366.75
32.86,8475.6875,10366.25
32.88,8475.5,10367.375
32.9,8475.0,10366.875
32.92,8474.9375,10367.3125
32.94,8475.0625,10367.875
32.96,8475.1875,10367.9375
32.980000000000004,8475.375,10368.6875
33.0,8475.5,10369.0625
33.02,8475.3125,10369.625
33.04,8475.4375,10369.75
33.06,8474.9375,10369.75
33.08,8475.3125,10370.75
33.1,8475.625,10371.1875
33.12,8475.5625,10371.8125
33.14,8474.9375,10371.0
33.160000000000004,8474.8125,10370.9375
33.18,8474.5625,10370.8125
33.2,8473.9375,10369.75
33.22,8473.5625,10368.25
33.24,8473.625,10367.375
33.26,8472.875,10365.1875
33.28,8472.625,10364.125
33.3,8472.0,10362.5625
33.32,8471.6875,10362.125
33.34,8471.25,10361.3125
33.36,8470.4375,10360.0
33.38,8470.3125,10359.8125
33.4,8469.8125,10358.8125
33.42,8469.75,10358.75
33.44,8469.75,10358.6875
33.46,8469.625,10358.1875
33.480000000000004,8469.6875,10358.0625
33.5,8469.25,10357.5
33.52,8469.375,10358.0
33.54,8469.375,10357.9375
33.56,8469.5625,10357.625
33.58,8469.625,10358.125
33.6,8469.5625,10358.5625
33.62,8469.6875,10358.5
33.64,8469.3125,10359.3125
33.660000000000004,8469.6875,10359.875
33.68,8470.0625,10360.25
33.7,8470.1875,10360.4375
33.72,8470.125,10360.625
33.74,8470.375,10361.0
33.76,8470.375,10361.125
33.78,8470.5,10361.875
33.8,8471.0,10362.4375
33.82,8470.5625,10362.875
33.84,8470.8125,10363.25
33.86,8470.875,10363.875
33.88,8471.1875,10364.0625
33.9,8471.25,10365.125
33.92,8471.5625,10365.4375
33.94,8471.8125,10366.25
33.96,8472.4375,10367.125
33.980000000000004,8473.4375,10367.5
34.0,8473.8125,10369.0625
34.02,8474.3125,10370.125
34.04,8474.6875,10370.5625
34.06,8475.0625,10370.9375
34.08,8474.6875,10371.0625
34.1,8475.4375,10370.875
34.12,8475.5625,10370.3125
34.14,8475.9375,10370.375
34.160000000000004,8475.875,10369.5
34.18,8475.875,10368.75
34.2,8475.75,10368.0
34.22,8475.8125,10367.4375
34.24,8475.8125,10367.125
34.26,8475.375,10367.1875
34.28,8475.9375,10367.25
34.300000000000004,8475.625,10366.8125
34.32,8475.9375,10366.8125
34.34,8476.1875,10367.0625
34.36,8476.5,10367.125
34.38,8476.375,10367.625
34.4,8476.625,10367.875
34.42,8476.9375,10368.0625
34.44,8477.375,10368.75
34.46,8477.6875,10369.125
34.480000000000004,8477.9375,10369.75
34.5,8478.1875,10369.9375
34.52,8478.75,10370.8125
34.54,8479.125,10371.6875
34.56,8479.4375,10372.5
34.58,8479.875,10373.25
34.6,8480.375,10373.9375
34.62,8480.5,10374.1875
34.64,8480.4375,10374.625
34.660000000000004,8480.8125,10375.0625
34.68,8481.1875,10375.5625
34.7,8481.625,10376.6875
34.72,8481.6875,10376.9375
34.74,8482.25,10377.625
34.76,8482.5625,10378.5
34.78,8482.875,10379.0
34.800000000000004,8483.3125,10380.0625
34.82,8483.4375,10380.5625
34.84,8483.5625,10380.875
34.86,8484.1875,10381.375
34.88,8484.625,10382.125
34.9,8485.1875,10382.8125
34.92,8485.625,10383.4375
34.94,8485.0,10383.875
34.96,8485.4375,10383.375
34.980000000000004,8485.25,10383.1875
35.0,8485.0625,10382.625
35.02,8484.875,10381.5625
35.04,8484.375,10380.0625
35.06,8483.8125,10378.75
35.08,8483.375,10377.625
35.1,8483.4375,10377.75
35.12,8482.75,10376.8125
35.14,8482.5625,10376.5
35.160000000000004,8482.3125,10376.0
35.18,8482.75,10375.75
35.2,8482.1875,10375.125
35.22,8481.9375,10374.875
35.24,8481.8125,10374.8125
35.26,8481.5,10374.75
35.28,8481.1875,10374.625
35.300000000000004,8481.25,10374.5
35.32,8481.0,10374.6875
35.34,8480.9375,10374.25
35.36,8480.625,10374.6875
35.38,8480.0625,10374.875
35.4,8480.3125,10374.75
35.42,8480.125,10374.75
35.44,8480.0625,10375.125
35.46,8480.25,10375.4375
35.480000000000004,8480.0,10375.6875
35.5,8479.75,10375.375
35.52,8479.75,10375.5625
35.54,8479.75,10376.0625
35.56,8479.625,10376.25
35.58,8479.75,10376.6875
35.6,8479.5625,10376.5
35.62,8479.375,10376.5625
35.64,8479.625,10376.75
35.660000000000004,8479.625,10376.8125
35.68,8479.6875,10377.5
35.7,8479.75,10378.125
35.72,8479.5625,10378.1875
35.74,8480.0,10378.5
35.76,8480.0,10378.8125
35.78,8480.125,10379.0
35.800000000000004,8480.3125,10379.375
35.82,8480.375,10379.75
35.84,8480.1875,10379.8125
35.86,8480.25,10379.0625
35.88,8479.6875,10378.25
35.9,8479.1875,10377.3125
35.92,8478.8125,10375.3125
35.94,8478.25,10374.0625
35.96,8477.6875,10372.875
35.980000000000004,8477.4375,10371.8125
36.0,8476.75,10371.25
36.02,8476.125,10370.375
36.04,8476.0,10370.375
36.06,8475.8125,10370.0625
36.08,8475.6875,10369.5
36.1,8475.1875,10369.0
36.12,8475.125,10368.5
36.14,8475.0625,10368.5625
36.160000000000004,8475.0625,10368.3125
36.18,8474.75,10368.3125
36.2,8475.375,10368.6875
36.22,8475.0625,10368.5625
36.24,8474.875,10368.6875
36.26,8474.875,10368.625
36.28,8475.0,10369.1875
36.300000000000004,8475.125,10369.1875
36.32,8474.875,10369.25
36.34,8475.1875,10370.125
36.36,8475.125,10370.1875
36.38,8475.0625,10370.0
36.4,8475.0625,10370.75
36.42,8475.375,10370.6875
36.44,8475.5,10371.0625
36.46,8475.5625,10371.375
36.480000000000004,8475.6875,10371.875
36.5,8475.8125,10371.875
36.52,8475.6875,10372.3125
36.54,8475.625,10372.0625
36.56,8476.125,10371.9375
36.58,8475.8125,10372.125
36.6,8475.6875,10372.375
36.62,8475.625,10372.5
36.64,8475.8125,10372.8125
36.660000000000004,8476.0,10373.1875
36.68,8476.25,10373.4375
36.7,8476.5,10373.6875
36.72,8476.25,10373.5
36.74,8475.9375,10373.4375
36.76,8475.8125,10373.625
36.78,8475.6875,10372.5
36.800000000000004,8475.25,10371.6875
36.82,8475.0625,10370.0
36.84,8474.8125,10369.3125
36.86,8474.8125,10368.625
36.88,8475.125,10368.125
36.9,8474.9375,10367.5
36.92,8474.9375,10366.9375
36.94,8475.1875,10367.1875
36.96,8475.375,10367.5
36.980000000000004,8475.75,10367.375
37.0,8475.8125,10367.1875
37.02,8476.1875,10367.6875
37.04,8476.0625,10367.9375
37.06,8476.5,10368.1875
37.08,8476.75,10368.5
37.1,8477.3125,10369.0
37.12,8477.3125,10369.25
37.14,8477.6875,10370.0
37.160000000000004,8478.5625,10370.5625
37.18,8478.75,10371.25
37.2,8479.3125,10371.9375
37.22,8479.25,10372.75
37.24,8479.8125,10373.625
37.26,8480.125,10373.9375
37.28,8480.875,10374.6875
37.300000000000004,8481.1875,10375.0
37.32,8481.4375,10376.25
37.34,8482.0,10376.75
37.36,8482.3125,10377.25
37.38,8483.25,10378.5
37.4,8483.375,10379.0625
37.42,8484.0625,10380.25
37.44,8484.625,10380.5625
37.46,8484.875,10380.9375
37.480000000000004,8485.3125,10382.0
37.5,8485.8125,10382.75
37.52,8486.0625,10383.375
37.54,8486.625,10384.1875
37.56,8487.25,10384.875
37.58,8487.5625,10385.875
37.6,8487.75,10386.0
37.62,8487.875,10386.125
37.64,8488.4375,10386.9375
37.660000000000004,8488.4375,10386.875
37.68,8488.4375,10386.5
37.7,8488.375,10385.375
37.72,8488.0,10383.875
37.74,8487.875,10382.625
37.76,8487.4375,10381.6875
37.78,8487.0625,10380.8125
37.800000000000004,8486.8125,10380.3125
37.82,8486.75,10379.75
37.84,8487.0,10379.25
37.86,8487.3125,10379.0
37.88,8487.3125,10378.875
37.9,8487.4375,10379.0
37.92,8487.375,10378.4375
37.94,8487.1875,10378.3125
37.96,8487.1875,10378.125
37.980000000000004,8487.1875,10377.875
38.0,8487.1875,10378.5625
38.02,8487.625,10378.25
38.04,8487.0625,10378.875
38.06,8487.5625,10379.0625
38.08,8487.4375,10379.75
38.1,8487.875,10379.9375
38.12,8487.8125,10380.8125
38.14,8488.4375,10380.875
38.160000000000004,8488.5,10381.3125
38.18,8488.6875,10382.0625
38.2,8488.8125,10382.375
38.22,8488.875,10382.5625
38.24,8489.125,10383.1875
38.26,8489.3125,10383.75
38.28,8489.75,10384.1875
38.300000000000004,8489.625,10384.1875
38.32,8489.4375,10384.25
38.34,8489.5,10384.625
38.36,8489.625,10384.875
38.38,8489.6875,10385.625
38.4,8490.0625,10385.9375
38.42,8490.4375,10386.625
38.44,8490.5625,10387.25
38.46,8490.5,10387.1875
38.480000000000004,8490.3125,10386.875
38.5,8490.0,10386.875
38.52,8489.875,10386.4375
38.54,8489.75,10385.625
38.56,8489.0,10384.125
38.58,8488.5625,10382.5625
38.6,8488.4375,10381.6875
38.62,8487.8125,10380.4375
38.64,8487.5625,10379.75
38.660000000000004,8487.0625,10378.875
38.68,8487.4375,10379.125
38.7,8487.5625,10378.6875
38.72,8487.6875,10378.625
38.74,8487.3125,10378.125
38.76,8487.1875,10377.8125
38.78,8487.3125,10378.25
38.800000000000004,8487.625,10378.75
38.82,8488.0,10378.6875
38.84,8487.5,10378.25
38.86,8488.0,10378.3125
38.88,8488.125,10378.625
38.9,8488.4375,10379.5625
38.92,8488.9375,10380.0
38.94,8489.125,10380.5
38.96,8489.25,10381.0
38.980000000000004,8490.0,10382.1875
39.0,8490.4375,10382.625
39.02,8490.625,10383.0625
39.04,8491.3125,10384.125
39.06,8491.25,10384.3125
39.08,8491.875,10385.8125
39.1,8491.875,10386.0
39.12,8492.3125,10386.9375
39.14,8492.8125,10387.8125
39.160000000000004,8493.1875,10388.625
39.18,8493.5625,10389.25
39.2,8493.875,10390.3125
39.22,8494.3125,10390.75
39.24,8494.4375,10391.375
39.26,8495.25,10392.1875
39.28,8495.625,10393.0
39.300000000000004,8496.5625,10394.0
39.32,8497.375,10394.9375
39.34,8493.1875,10353.125
39.36,8508.1875,10366.375
39.38,8515.125,10380.6875
39.4,8517.5625,10395.5
39.42,8523.25,10412.3125
39.44,8525.75,10421.0
39.46,8519.9375,10419.1875
39.480000000000004,8516.875,10417.625
39.5,8516.3125,10420.3125
39.52,8516.9375,10424.1875
39.54,8517.5,10426.0
39.56,8517.5625,10427.3125
39.58,8517.9375,10428.5
39.6,8518.1875,10428.8125
39.62,8518.3125,10429.375
39.64,8518.1875,10429.1875
39.660000000000004,8518.0,10429.125
39.68,8518.25,10429.125
39.7,8518.25,10429.125
39.72,8517.875,10428.5
39.74,8517.375,10427.9375
39.76,8517.0,10427.0625
39.78,8516.1875,10426.375
39.800000000000004,8515.75,10425.875
39.82,8515.3125,10425.25
39.84,8514.8125,10424.6875
39.86,8514.5625,10424.0
39.88,8513.875,10422.75
39.9,8514.0625,10422.5625
39.92,8513.3125,10421.6875
39.94,8513.0,10420.625
39.96,8512.5625,10420.25
39.980000000000004,8511.75,10419.375
40.0,8510.6875,10418.1875
40.02,8509.9375,10416.9375
40.04,8509.3125,10416.3125
40.06,8508.9375,10415.5625
40.08,8507.8125,10414.5625
40.1,8507.125,10413.0625
40.12,8506.25,10412.375
40.14,8505.875,10411.375
40.160000000000004,8505.0625,10410.5
40.18,8504.1875,10408.875
40.2,8503.0625,10407.375
40.22,8502.25,10405.8125
40.24,8501.125,10403.9375
40.26,8499.875,10401.5
40.28,8498.375,10398.5625
40.300000000000004,8497.375,10396.0625
40.32,8496.6875,10393.625
40.34,8495.375,10391.125
40.36,8493.875,10388.625
40.38,8492.625,10386.125
40.4,8491.625,10384.4375
40.42,8490.9375,10382.6875
40.44,8490.0,10381.0
40.46,8488.75,10379.5
40.480000000000004,8488.0,10377.5
40.5,8487.5,10376.875
40.52,8487.3125,10376.125
40.54,8486.375,10375.0
40.56,8486.125,10374.375
40.58,8485.9375,10373.9375
40.6,8485.375,10373.1875
40.62,8484.625,10372.6875
40.64,8484.375,10372.0625
40.660000000000004,8484.3125,10372.125
40.68,8484.25,10372.125
40.7,8484.4375,10372.5625
40.72,8484.125,10372.125
40.74,8484.0625,10372.0
40.76,8483.5625,10371.9375
40.78,8483.6875,10372.4375
40.800000000000004,8483.625,10372.375
40.82,8483.375,10372.1875
40.84,8483.5625,10371.9375
40.86,8483.625,10372.25
40.88,8483.625,10372.625
40.9,8484.0,10373.125
40.92,8483.875,10373.1875
40.94,8484.1875,10373.5
40.96,8484.4375,10374.0625
40.980000000000004,8485.0,10374.5
41.0,8484.6875,10374.8125
41.02,8485.6875,10376.0625
41.04,8485.6875,10376.4375
41.06,8486.1875,10377.375
41.08,8486.8125,10377.875
41.1,8487.0625,10378.375
41.12,8487.375,10378.6875
41.14,8487.1875,10378.3125
41.160000000000004,8487.125,10377.8125
41.18,8487.4375,10376.875
41.2,8487.5,10376.0
41.22,8487.0625,10374.8125
41.24,8487.125,10374.125
41.26,8486.8125,10373.375
41.28,8486.8125,10372.9375
41.300000000000004,8486.875,10372.8125
41.32,8487.125,10372.375
41.34,8487.25,10372.4375
41.36,8487.125,10372.375
41.38,8487.0625,10372.3125
41.4,8487.375,10372.375
41.42,8487.6875,10372.75
41.44,8487.6875,10372.5625
41.46,8488.0625,10372.9375
41.480000000000004,8488.5,10373.5
41.5,8488.1875,10373.8125
41.52,8488.8125,10374.1875
41.54,8489.0,10374.3125
41.56,8489.375,10375.0625
41.58,8489.5625,10376.1875
41.6,8490.25,10376.875
41.62,8490.5,10377.5
41.64,8491.3125,10378.25
41.660000000000004,8491.3125,10378.5625
41.68,8491.5,10378.6875
41.7,8491.6875,10379.375
41.72,8492.125,10379.75
41.74,8492.0,10379.875
41.76,8492.1875,10381.125
41.78,8493.0,10382.0
41.800000000000004,8493.4375,10382.625
41.82,8493.5625,10382.9375
41.84,8494.0625,10384.0
41.86,8494.3125,10384.8125
41.88,8494.4375,10385.375
41.9,8494.75,10385.9375
41.92,8495.625,10387.0625
41.94,8495.75,10387.875
41.96,8496.3125,10388.75
41.980000000000004,8496.875,10389.0
42.0,8497.1875,10389.4375
42.02,8497.8125,10389.4375
42.04,8498.3125,10389.5625
42.06,8498.5625,10388.8125
42.08,8498.4375,10387.5
42.1,8499.0625,10386.6875
42.12,8498.4375,10385.3125
42.14,8498.4375,10384.1875
42.160000000000004,8497.875,10382.8125
42.18,8498.1875,10382.8125
42.2,8498.5,10382.4375
42.22,8498.4375,10381.6875
42.24,8497.5625,10380.8125
42.26,8497.0,10379.625
42.28,8496.5625,10378.875
42.300000000000004,8496.375,10378.4375
42.32,8496.5,10378.3125
42.34,8495.875,10376.9375
42.36,8495.5625,10376.8125
42.38,8495.5625,10376.9375
42.4,8495.375,10376.1875
42.42,8495.0625,10376.625
42.44,8495.1875,10376.25
42.46,8495.0625,10376.3125
42.480000000000004,8495.0625,10376.4375
42.5,8494.5,10376.75
42.52,8494.9375,10376.75
42.54,8494.625,10376.8125
42.56,8494.875,10377.25
42.58,8494.625,10377.375
42.6,8494.625,10377.375
42.62,8494.4375,10377.1875
42.64,8494.625,10377.875
42.660000000000004,8494.3125,10377.9375
42.68,8494.75,10378.5
42.7,8495.0,10378.8125
42.72,8494.875,10379.125
42.74,8494.6875,10379.3125
42.76,8494.75,10379.5625
42.78,8494.5,10379.5625
42.800000000000004,8494.875,10380.3125
42.82,8495.625,10381.8125
42.84,8496.125,10382.1875
42.86,8496.3125,10382.3125
42.88,8495.875,10382.25
42.9,8495.3125,10381.5625
42.92,8495.3125,10381.25
42.94,8494.6875,10379.875
42.96,8494.3125,10378.4375
42.980000000000004,8493.375,10376.8125
43.0,8493.125,10375.5
43.02,8492.5,10374.0
43.04,8492.375,10373.0625
43.06,8491.5625,10371.875
43.08,8491.0,10371.0625
43.1,8490.875,10370.5
43.12,8490.3125,10369.375
43.14,8489.0,10368.625
43.160000000000004,8489.1875,10368.0625
43.18,8488.8125,10367.5
43.2,8488.1875,10367.1875
43.22,8487.8125,10366.9375
43.24,8487.6875,10366.0
43.26,8487.5,10366.3125
43.28,8487.125,10365.9375
43.300000000000004,8487.5,10366.6875
43.32,8487.9375,10366.875
43.34,8487.4375,10367.1875
43.36,8487.375,10367.4375
43.38,8487.75,10367.75
43.4,8487.75,10368.5
43.42,8487.6875,10368.9375
43.44,8488.0625,10369.5625
43.46,8488.3125,10370.125
43.480000000000004,8488.1875,10370.625
43.5,8488.8125,10371.25
43.52,8489.3125,10372.8125
43.54,8490.0,10373.625
43.56,8490.625,10374.9375
43.58,8491.0625,10376.3125
43.6,8492.1875,10377.4375
43.62,8492.5625,10378.6875
43.64,8493.25,10379.6875
43.660000000000004,8494.0625,10381.0
43.68,8494.375,10382.3125
43.7,8494.625,10383.75
43.72,8495.5,10384.9375
43.74,8496.1875,10385.9375
43.76,8496.75,10386.9375
43.78,8497.3125,10388.0625
43.800000000000004,8498.0,10388.875
43.82,8498.375,10390.0625
43.84,8498.3125,10390.625
43.86,8498.4375,10390.25
43.88,8498.125,10389.75
43.9,8498.125,10389.0
43.92,8498.0,10388.6875
43.94,8498.125,10387.75
43.96,8497.5625,10387.3125
43.980000000000004,8497.9375,10386.75
44.0,8498.0625,10386.5625
44.02,8497.75,10386.375
44.04,8498.125,10386.0
44.06,8498.0625,10386.25
44.08,8498.4375,10386.125
44.1,8497.6875,10386.3125
44.12,8498.4375,10386.1875
44.14,8498.5,10386.5
44.160000000000004,8499.0625,10386.75
44.18,8499.25,10387.3125
44.2,8499.3125,10387.375
44.22,8499.75,10388.1875
44.24,8500.0625,10388.6875
44.26,8500.375,10388.6875
44.28,8500.25,10389.3125
44.300000000000004,8500.625,10389.75
44.32,8501.3125,10390.6875
44.34,8501.5,10391.0
44.36,8501.5,10391.75
44.38,8501.9375,10391.875
44.4,8501.875,10392.25
44.42,8502.25,10393.125
44.44,8502.6875,10393.6875
44.46,8502.375,10394.0625
44.480000000000004,8503.0625,10394.1875
44.5,8503.1875,10394.75
44.52,8503.1875,10395.1875
44.54,8503.75,10396.0
44.56,8503.6875,10396.5625
44.58,8503.8125,10397.0
44.6,8503.9375,10397.3125
44.62,8503.75,10397.5
44.64,8503.5625,10397.5625
44.660000000000004,8503.8125,10398.1875
44.68,8503.9375,10398.8125
44.7,8504.0,10399.5
44.72,8504.1875,10400.0625
44.74,8504.125,10399.9375
44.76,8504.125,10399.4375
44.78,8503.375,10399.0
44.800000000000004,8502.9375,10397.5
44.82,8502.25,10396.375
44.84,8501.625,10395.1875
44.86,8501.0625,10394.0625
44.88,8500.4375,10392.875
44.9,8499.4375,10391.9375
44.92,8498.75,10390.6875
44.94,8498.25,10390.0625
44.96,8497.625,10388.8125
44.980000000000004,8497.1875,10388.1875
45.0,8496.8125,10387.375
45.02,8496.4375,10387.125
45.04,8496.0,10386.875
45.06,8496.0,10386.5
45.08,8495.5625,10386.3125
45.1,8495.5,10385.8125
45.12,8495.25,10385.5625
45.14,8495.125,10385.5
45.160000000000004,8495.25,10385.75
45.18,8495.0,10386.0625
45.2,8495.375,10386.3125
45.22,8494.9375,10386.1875
45.24,8494.9375,10386.5
45.26,8494.875,10386.0625
45.28,8494.625,10386.625
45.300000000000004,8494.9375,10387.0
45.32,8495.1875,10387.4375
45.34,8495.25,10387.75
45.36,8495.0,10387.875
45.38,8494.8125,10387.5625
45.4,8494.75,10387.625
45.42,8494.75,10387.6875
45.44,8494.5625,10388.625
45.46,8494.75,10388.5
45.480000000000004,8494.875,10388.625
45.5,8495.0,10389.4375
45.52,8494.8125,10389.5
45.54,8494.9375,10389.9375
45.56,8495.5,10390.375
45.58,8495.0625,10390.3125
45.6,8495.375,10391.0
45.62,8495.5625,10391.8125
45.64,8495.5625,10392.125
45.660000000000004,8495.6875,10392.5
45.68,8495.375,10392.3125
45.7,8495.1875,10392.5625
45.72,8495.25,10391.9375
45.74,8494.625,10390.75
45.76,8494.375,10389.3125
45.78,8493.375,10387.6875
45.800000000000004,8492.875,10386.3125
45.82,8492.875,10386.25
45.84,8492.5625,10385.3125
45.86,8492.5,10384.9375
45.88,8492.1875,10384.3125
45.9,8492.0625,10383.875
45.92,8491.875,10383.25
45.94,8491.5625,10382.875
45.96,8491.5625,10382.8125
45.980000000000004,8491.4375,10382.75
46.0,8491.25,10382.4375
46.02,8492.0,10383.0625
46.04,8491.375,10383.25
46.06,8491.375,10383.625
46.08,8492.0625,10383.5625
46.1,8492.1875,10384.0625
46.12,8492.4375,10385.0625
46.14,8493.1875,10386.25
46.160000000000004,8493.5625,10387.0625
46.18,8493.75,10387.875
46.2,8494.4375,10388.5625
46.22,8495.125,10389.375
46.24,8495.8125,10390.5625
46.26,8495.9375,10391.375
46.28,8496.625,10392.3125
46.300000000000004,8497.0625,10393.1875
46.32,8497.6875,10394.75
46.34,8498.1875,10395.875
46.36,8499.1875,10397.1875
46.38,8499.75,10398.4375
46.4,8500.3125,10399.625
46.42,8500.8125,10401.0625
46.44,8501.625,10401.8125
46.46,8501.9375,10403.1875
46.480000000000004,8502.75,10404.0625
46.5,8503.3125,10405.25
46.52,8503.6875,10406.625
46.54,8504.25,10407.8125
46.56,8505.3125,10409.3125
46.58,8506.0,10410.4375
46.6,8506.9375,10411.6875
46.62,8507.5,10412.8125
46.64,8507.9375,10413.0625
46.660000000000004,8508.4375,10413.25
46.68,8508.25,10412.75
46.7,8508.5625,10412.3125
46.72,8508.25,10411.8125
46.74,8509.125,10410.9375
46.76,8509.5625,10410.75
46.78,8509.625,10410.375
46.800000000000004,8509.75,10409.125
46.82,8508.9375,10408.0
46.84,8508.9375,10407.625
46.86,8508.6875,10407.0
46.88,8508.625,10406.9375
46.9,8509.125,10406.8125
46.92,8509.1875,10406.6875
46.94,8509.25,10406.4375
46.96,8508.875,10406.25
46.980000000000004,8508.5,10405.25
47.0,8507.4375,10404.625
47.02,8507.0625,10403.875
47.04,8507.0625,10404.3125
47.06,8507.5625,10404.9375
47.08,8508.4375,10406.375
47.1,8509.1875,10407.0625
47.12,8509.6875,10407.625
47.14,8509.75,10408.1875
47.160000000000004,8509.75,10408.25
47.18,8509.875,10408.3125
47.2,8510.375,10409.1875
47.22,8510.3125,10409.1875
47.24,8510.1875,10409.9375
47.26,8510.3125,10410.25
47.28,8510.0,10410.4375
47.300000000000004,8509.875,10410.1875
47.32,8510.25,10411.0
47.34,8510.4375,10411.5
47.36,8510.125,10411.5625
47.38,8510.1875,10411.6875
47.4,8510.5,10412.6875
47.42,8509.875,10412.4375
47.44,8510.125,10412.3125
47.46,8509.6875,10412.125
47.480000000000004,8509.75,10412.625
47.5,8509.6875,10412.9375
47.52,8509.5625,10413.125
47.54,8509.375,10412.9375
47.56,8509.0625,10412.625
47.58,8508.6875,10412.0625
47.6,8508.0625,10410.5
47.62,8507.625,10409.6875
47.64,8507.0625,10408.125
47.660000000000004,8506.5,10407.1875
47.68,8505.8125,10406.1875
47.7,8505.5,10405.4375
47.72,8504.6875,10404.5
47.74,8504.625,10404.125
47.76,8504.3125,10403.25
47.78,8504.0,10402.625
47.800000000000004,8503.625,10402.0625
47.82,8503.6875,10401.8125
47.84,8503.4375,10401.625
47.86,8503.625,10401.75
47.88,8503.375,10401.8125
47.9,8503.375,10401.1875
47.92,8503.375,10401.0
47.94,8503.1875,10401.375
47.96,8503.125,10401.1875
47.980000000000004,8502.6875,10401.375
48.0,8502.8125,10402.0
48.02,8502.8125,10401.6875
48.04,8503.125,10402.3125
48.06,8503.0625,10402.3125
48.08,8502.8125,10402.8125
48.1,8503.125,10403.0625
48.120000000000005,8503.0,10403.1875
48.14,8502.875,10403.875
48.160000000000004,8503.4375,10403.8125
48.18,8503.625,10404.5625
48.2,8503.625,10405.1875
48.22,8504.25,10405.5
48.24,8504.125,10405.6875
48.26,8504.5,10406.875
48.28,8505.0,10407.625
48.300000000000004,8505.625,10408.8125
48.32,8506.125,10409.625
48.34,8506.875,10410.375
48.36,8507.4375,10411.5625
48.38,8508.0625,10412.8125
48.4,8508.8125,10413.875
48.42,8509.375,10415.0625
48.44,8509.6875,10416.125
48.46,8510.0,10416.5
48.480000000000004,8510.5625,10417.125
48.5,8510.6875,10416.25
48.52,8510.375,10415.4375
48.54,8510.5625,10414.625
48.56,8510.0,10413.875
48.58,8510.375,10413.6875
48.6,8509.875,10412.8125
48.620000000000005,8509.8125,10412.4375
48.64,8510.0625,10412.3125
48.660000000000004,8510.3125,10412.0625
48.68,8510.3125,10412.1875
48.7,8510.6875,10412.4375
48.72,8510.625,10412.3125
48.74,8511.0625,10413.125
48.76,8511.5625,10413.0625
48.78,8511.0,10412.875
48.800000000000004,8511.5,10413.0
48.82,8511.5,10413.4375
48.84,8511.5625,10413.4375
48.86,8512.0,10414.0625
48.88,8512.1875,10414.5
48.9,8512.9375,10415.125
48.92,8513.1875,10416.3125
48.94,8513.8125,10416.75
48.96,8514.0,10417.4375
48.980000000000004,8514.5,10418.125
49.0,8515.0,10418.5
49.02,8515.875,10419.375
49.04,8516.75,10420.125
49.06,8500.25,10362.125
49.08,8506.8125,10367.3125
49.1,8509.1875,10381.375
49.120000000000005,8512.5625,10400.875
49.14,8523.1875,10424.9375
49.160000000000004,8529.3125,10435.8125
49.18,8527.5,10434.625
49.2,8527.0,10435.375
49.22,8527.75,10439.3125
49.24,8528.75,10443.625
49.26,8530.625,10446.875
49.28,8531.4375,10449.4375
49.300000000000004,8531.375,10449.9375
49.32,8531.25,10450.3125
49.34,8530.6875,10450.9375
49.36,8530.375,10450.4375
49.38,8529.9375,10449.8125
49.4,8529.25,10447.8125
49.42,8529.1875,10447.0
49.44,8528.5,10445.4375
49.46,8527.5,10443.875
49.480000000000004,8526.125,10442.0625
49.5,8525.625,10441.0625
49.52,8525.1875,10440.25
49.54,8524.0625,10438.5625
49.56,8523.0625,10437.375
49.58,8522.25,10435.4375
49.6,8521.4375,10434.25
49.620000000000005,8521.0625,10433.625
49.64,8520.375,10432.9375
49.660000000000004,8519.875,10431.0625
49.68,8518.5,10429.3125
49.7,8518.0625,10428.0
49.72,8517.5625,10427.5
49.74,8516.9375,10426.5
49.76,8516.1875,10426.3125
49.78,8515.5,10425.4375
49.800000000000004,8514.5625,10424.5625
49.82,8513.875,10423.625
49.84,8513.5625,10423.1875
49.86,8513.125,10422.4375
49.88,8513.1875,10421.875
49.9,8512.5625,10421.375
49.92,8512.0,10420.5
49.94,8511.1875,10420.0
49.96,8511.25,10420.1875
49.980000000000004,8510.875,10419.625
50.0,8510.5625,10419.5
50.02,8510.625,10419.6875
50.04,8510.1875,10419.125
50.06,8509.9375,10418.875
50.08,8509.75,10418.625
50.1,8509.875,10418.9375
50.120000000000005,8510.0,10419.125
50.14,8509.9375,10419.5625
50.160000000000004,8509.125,10419.5
50.18,8508.9375,10418.625
50.2,8508.1875,10417.9375
50.22,8507.8125,10416.3125
50.24,8507.0625,10415.0625
50.26,8506.3125,10413.5
50.28,8505.75,10412.625
50.300000000000004,8505.75,10411.4375
50.32,8505.1875,10410.4375
50.34,8504.6875,10409.875
50.36,8504.4375,10409.0625
50.38,8504.3125,10408.375
50.4,8504.125,10408.125
50.42,8503.5625,10408.375
50.44,8503.1875,10407.9375
50.46,8503.25,10408.3125
50.480000000000004,8503.25,10408.25
50.5,8503.1875,10409.0
50.52,8503.6875,10409.875
50.54,8504.125,10411.0
50.56,8504.5,10411.75
50.58,8505.0625,10413.0625
50.6,8505.4375,10414.125
50.620000000000005,8505.9375,10414.75
50.64,8506.5625,10416.4375
50.660000000000004,8507.375,10417.9375
50.68,8508.4375,10419.9375
50.7,8509.625,10421.8125
50.72,8510.9375,10423.1875
50.74,8511.5,10424.0
50.76,8511.5625,10424.0625
50.78,8512.25,10425.4375
50.800000000000004,8513.5,10426.4375
50.82,8514.5,10427.5
50.84,8515.125,10428.75
50.86,8515.75,10429.25
50.88,8515.5625,10429.375
50.9,8515.625,10430.3125
50.92,8516.625,10431.75
50.94,8517.1875,10432.5625
50.96,8517.9375,10434.375
50.980000000000004,8518.75,10435.375
51.0,8519.1875,10436.25
51.02,8520.0625,10437.0
51.04,8520.875,10437.9375
51.06,8521.1875,10437.75
51.08,8521.625,10437.5
51.1,8521.0625,10436.3125
51.120000000000005,8520.75,10435.0
51.14,8520.6875,10433.375
51.160000000000004,8519.9375,10432.0625
51.18,8519.1875,10430.75
51.2,8519.125,10429.875
51.22,8518.8125,10429.0
51.24,8518.625,10428.375
51.26,8519.0625,10428.0625
51.28,8518.6875,10427.5625
51.300000000000004,8519.125,10427.125
51.32,8519.0,10427.625
51.34,8519.25,10427.9375
51.36,8519.125,10427.875
51.38,8519.375,10428.1875
51.4,8519.75,10429.0625
51.42,8520.375,10429.9375
51.44,8520.8125,10430.75
51.46,8520.875,10431.1875
51.480000000000004,8520.4375,10431.6875
51.5,8520.6875,10431.8125
51.52,8520.875,10432.75
51.54,8520.6875,10433.5625
51.56,8520.75,10434.1875
51.58,8521.5625,10434.6875
51.6,8521.875,10434.9375
51.620000000000005,8521.6875,10435.125
51.64,8521.875,10435.25
51.660000000000004,8522.0,10434.875
51.68,8521.5,10435.0625
51.7,8521.25,10434.3125
51.72,8520.6875,10434.1875
51.74,8520.375,10433.9375
51.76,8519.75,10433.25
51.78,8518.9375,10432.6875
51.800000000000004,8518.6875,10432.6875
51.82,8518.3125,10432.875
51.84,8518.125,10433.0
51.86,8517.6875,10432.9375
51.88,8516.875,10432.8125
51.9,8517.0,10432.8125
51.92,8516.75,10432.125
51.94,8515.75,10430.75
51.96,8514.25,10429.1875
51.980000000000004,8513.625,10427.5625
52.0,8512.5625,10425.6875
52.02,8511.5,10424.75
52.04,8510.8125,10423.3125
52.06,8509.75,10422.4375
52.08,8509.125,10421.25
52.1,8508.6875,10420.6875
52.120000000000005,8508.375,10420.125
52.14,8507.875,10419.625
52.160000000000004,8507.0625,10418.6875
52.18,8506.875,10418.3125
52.2,8507.0,10418.3125
52.22,8506.6875,10418.6875
52.24,8506.3125,10417.6875
52.26,8506.0,10417.5625
52.28,8505.625,10417.1875
52.300000000000004,8505.5,10417.0625
52.32,8505.0625,10417.0625
52.34,8504.75,10417.3125
52.36,8504.375,10417.8125
52.38,8504.375,10418.0625
52.4,8504.75,10418.3125
52.42,8504.3125,10418.0625
52.44,8504.625,10418.3125
52.46,8504.5,10418.875
52.480000000000004,8504.5,10418.625
52.5,8504.1875,10419.0625
52.52,8504.1875,10419.625
52.54,8504.0,10420.0
52.56,8504.125,10420.125
52.58,8504.0,10420.75
52.6,8504.0625,10421.5625
52.620000000000005,8504.4375,10422.625
52.64,8504.75,10422.875
52.660000000000004,8504.8125,10423.5625
52.68,8505.0,10424.125
52.7,8505.5625,10425.3125
52.72,8505.875,10425.9375
52.74,8506.5,10427.125
52.76,8507.0625,10428.0
52.78,8507.375,10428.625
52.800000000000004,8507.9375,10429.125
52.82,8508.25,10429.25
52.84,8508.3125,10428.875
52.86,8508.625,10428.9375
52.88,8509.3125,10429.375
52.9,8509.625,10429.1875
52.92,8509.6875,10429.25
52.94,8510.375,10429.8125
52.96,8510.6875,10430.3125
52.980000000000004,8511.1875,10430.6875
53.0,8511.4375,10431.25
53.02,8511.9375,10431.1875
53.04,8512.1875,10431.4375
53.06,8512.625,10432.375
53.08,8512.75,10432.75
53.1,8512.9375,10433.3125
53.120000000000005,8513.375,10434.25
53.14,8513.875,10434.9375
53.160000000000004,8514.375,10435.6875
53.18,8515.0625,10436.5
53.2,8515.375,10437.1875
53.22,8515.5,10438.25
53.24,8516.25,10439.5625
53.26,8516.5625,10440.4375
53.28,8516.9375,10440.6875
53.300000000000004,8517.875,10442.6875
53.32,8518.25,10443.125
53.34,8518.875,10443.875
53.36,8518.875,10444.5625
53.38,8519.5625,10445.4375
53.4,8520.0,10446.4375
53.42,8520.25,10447.3125
53.44,8520.8125,10448.25
53.46,8521.8125,10449.0625
53.480000000000004,8521.9375,10449.75
53.5,8522.375,10450.625
53.52,8522.6875,10451.25
53.54,8523.0,10452.0
53.56,8523.8125,10452.5625
53.58,8524.1875,10454.125
53.6,8524.8125,10454.6875
53.620000000000005,8524.6875,10455.625
53.64,8525.3125,10455.9375
53.660000000000004,8525.25,10456.0625
53.68,8525.4375,10456.4375
53.7,8525.5,10455.9375
53.72,8525.125,10455.125
53.74,8524.9375,10454.0
53.76,8524.625,10453.0625
53.78,8524.3125,10451.875
53.800000000000004,8523.625,10451.0
53.82,8523.1875,10450.4375
53.84,8522.3125,10449.5625
53.86,8521.625,10449.25
53.88,8521.0625,10449.125
53.9,8520.875,10448.5
53.92,8520.0625,10448.5
53.94,8519.75,10448.125
53.96,8519.3125,10447.8125
53.980000000000004,8518.75,10447.8125
54.0,8518.5625,10447.375
54.02,8517.875,10447.125
54.04,8517.6875,10446.9375
54.06,8517.75,10446.875
54.08,8517.3125,10447.3125
54.1,8517.0625,10447.125
54.120000000000005,8517.25,10447.625
54.14,8517.0,10447.625
54.160000000000004,8516.375,10447.6875
54.18,8516.4375,10447.9375
54.2,8516.625,10448.0
54.22,8516.25,10448.75
54.24,8516.1875,10448.375
54.26,8515.8125,10448.375
54.28,8516.0,10448.75
54.300000000000004,8516.0625,10449.375
54.32,8516.0625,10449.5
54.34,8515.9375,10449.75
54.36,8515.8125,10450.25
54.38,8515.625,10450.9375
54.4,8515.5625,10450.1875
54.42,8515.375,10450.5625
54.44,8515.0625,10451.0625
54.46,8515.5625,10451.5625
54.480000000000004,8515.1875,10451.3125
54.5,8515.3125,10451.25
54.52,8514.5625,10450.375
54.54,8513.6875,10449.8125
54.56,8513.8125,10449.375
54.58,8513.5625,10448.375
54.6,8512.9375,10447.6875
54.620000000000005,8512.875,10446.5
54.64,8512.625,10445.3125
54.660000000000004,8511.9375,10444.0
54.68,8511.125,10442.625
54.7,8510.4375,10441.375
54.72,8509.8125,10440.5625
54.74,8509.6875,10440.3125
54.76,8509.6875,10439.75
54.78,8509.0625,10439.0625
54.800000000000004,8508.75,10438.125
54.82,8508.5,10437.25
54.84,8507.8125,10436.75
54.86,8507.5,10435.9375
54.88,8507.0,10435.625
54.9,8507.125,10435.0625
54.92,8506.875,10434.5625
54.94,8506.6875,10434.1875
54.96,8506.8125,10434.3125
54.980000000000004,8506.75,10434.0
55.0,8506.8125,10434.3125
55.02,8506.8125,10434.4375
55.04,8507.3125,10434.6875
55.06,8508.0,10435.4375
55.08,8509.1875,10436.875
55.1,8511.125,10439.5
55.120000000000005,8514.75,10443.0
55.14,8517.0,10444.125
55.160000000000004,8516.9375,10441.6875
55.18,8515.5625,10438.5
55.2,8514.9375,10437.0625
55.22,8515.4375,10438.125
55.24,8516.4375,10439.5
55.26,8516.4375,10439.875
55.28,8516.625,10439.0625
55.300000000000004,8516.75,10438.875
55.32,8517.5,10439.875
55.34,8518.375,10440.75
55.36,8518.625,10440.6875
55.38,8518.125,10440.0
55.4,8518.1875,10439.1875
55.42,8517.75,10438.5625
55.44,8517.6875,10438.0
55.46,8517.625,10438.0
55.480000000000004,8517.4375,10437.25
55.5,8516.6875,10436.75
55.52,8516.4375,10436.0625
55.54,8515.5,10434.5
55.56,8514.625,10432.8125
55.58,8512.8125,10431.25
55.6,8512.1875,10430.375
55.620000000000005,8511.125,10430.3125
55.64,8511.1875,10430.5625
55.660000000000004,8511.5,10431.375
55.68,8511.75,10432.0
55.7,8512.0,10432.6875
55.72,8512.625,10433.9375
55.74,8512.4375,10434.875
55.76,8512.9375,10435.5
55.78,8512.6875,10436.1875
55.800000000000004,8513.0,10436.875
55.82,8513.375,10437.5625
55.84,8514.0625,10438.8125
55.86,8514.5,10440.0
55.88,8514.8125,10441.5
55.9,8515.375,10442.625
55.92,8516.4375,10444.0625
55.94,8516.6875,10445.125
55.96,8517.4375,10446.625
55.980000000000004,8517.875,10447.6875
56.0,8518.25,10448.6875
56.02,8518.75,10449.875
56.04,8519.125,10450.5
56.06,8519.5,10451.5
56.08,8520.4375,10452.3125
56.1,8520.9375,10454.125
56.120000000000005,8521.75,10455.25
56.14,8522.5,10456.1875
56.160000000000004,8523.0,10456.5
56.18,8523.5625,10457.625
56.2,8524.3125,10458.5625
56.22,8525.1875,10460.25
56.24,8525.6875,10461.0
56.26,8525.875,10461.3125
56.28,8525.6875,10461.125
56.300000000000004,8526.25,10461.625
56.32,8526.5625,10461.3125
56.34,8526.625,10460.9375
56.36,8526.9375,10459.875
56.38,8526.75,10459.125
56.4,8526.6875,10458.6875
56.42,8526.4375,10457.75
56.44,8526.3125,10457.25
56.46,8526.375,10456.9375
56.480000000000004,8526.25,10456.9375
56.5,8526.5625,10457.0625
56.52,8526.1875,10456.8125
56.54,8526.125,10456.375
56.56,8525.625,10456.1875
56.58,8525.3125,10455.75
56.6,8524.6875,10455.6875
56.620000000000005,8524.375,10455.625
56.64,8524.125,10455.5625
56.660000000000004,8523.75,10455.4375
56.68,8522.9375,10454.6875
56.7,8522.5625,10455.1875
56.72,8522.5625,10455.25
56.74,8521.75,10455.1875
56.76,8522.125,10455.625
56.78,8521.9375,10456.0625
56.800000000000004,8521.875,10455.9375
56.82,8521.75,10456.375
56.84,8522.0,10457.1875
56.86,8522.0,10457.0625
56.88,8521.5625,10457.4375
56.9,8521.625,10457.6875
56.92,8522.125,10458.4375
56.94,8522.0,10458.5625
56.96,8521.8125,10458.6875
56.980000000000004,8522.25,10459.5
57.0,8521.8125,10459.875
57.02,8521.8125,10460.125
57.04,8521.625,10460.1875
57.06,8521.375,10460.0
57.08,8520.875,10459.875
57.1,8520.8125,10459.5625
57.120000000000005,8520.0625,10458.8125
57.14,8519.9375,10457.625
57.160000000000004,8519.5,10456.375
57.18,8519.0,10455.8125
57.2,8518.375,10455.1875
57.22,8518.0625,10453.9375
57.24,8517.375,10453.25
57.26,8516.8125,10452.625
57.28,8516.75,10452.6875
57.300000000000004,8516.125,10452.3125
57.32,8516.0625,10451.75
57.34,8515.5,10451.625
57.36,8515.1875,10451.125
57.38,8515.25,10451.1875
57.4,8515.3125,10450.875
57.42,8514.5,10450.375
57.44,8514.9375,10450.75
57.46,8514.6875,10450.4375
57.480000000000004,8514.375,10450.75
57.5,8514.5,10450.6875
57.52,8514.25,10450.9375
57.54,8514.25,10451.0625
57.56,8514.1875,10451.4375
57.58,8514.25,10451.875
57.6,8514.3125,10452.3125
57.620000000000005,8514.875,10452.5625
57.64,8514.8125,10452.625
57.660000000000004,8514.875,10452.8125
57.68,8514.6875,10453.875
57.7,8515.0,10454.0
57.72,8515.0625,10454.1875
57.74,8515.1875,10454.875
57.76,8515.5,10455.125
57.78,8515.5,10455.4375
57.800000000000004,8515.5625,10456.125
57.82,8515.3125,10456.3125
57.84,8516.0,10456.4375
57.86,8516.125,10457.0
57.88,8515.9375,10457.3125
57.9,8516.25,10457.25
57.92,8515.75,10457.0
57.94,8515.3125,10456.1875
57.96,8514.5625,10455.75
57.980000000000004,8514.625,10454.625
58.0,8514.1875,10453.6875
58.02,8513.9375,10452.8125
58.04,8513.5,10451.625
58.06,8513.375,10450.625
58.08,8512.625,10449.375
58.1,8512.3125,10448.75
58.120000000000005,8511.75,10448.3125
58.14,8511.6875,10447.625
58.160000000000004,8511.6875,10447.125
58.18,8511.4375,10446.5625
58.2,8510.9375,10446.625
58.22,8511.1875,10446.375
58.24,8510.875,10445.9375
58.26,8510.4375,10446.1875
58.28,8510.75,10446.25
58.300000000000004,8511.3125,10446.6875
58.32,8511.3125,10446.625
58.34,8511.125,10446.5625
58.36,8511.4375,10447.3125
58.38,8511.5,10447.625
58.4,8511.6875,10448.4375
58.42,8512.0,10448.375
58.44,8511.3125,10448.75
58.46,8511.625,10448.75
58.480000000000004,8511.875,10448.625
58.5,8512.25,10449.375
58.52,8512.375,10450.25
58.54,8512.3125,10450.4375
58.56,8513.1875,10450.9375
58.58,8513.0625,10451.25
58.6,8513.625,10452.0625
58.620000000000005,8513.625,10452.1875
58.64,8514.4375,10453.3125
58.660000000000004,8515.3125,10454.0625
58.68,8515.875,10455.3125
58.7,8516.375,10456.125
58.72,8517.5,10457.0625
58.74,8518.25,10458.3125
58.76,8519.0,10459.6875
58.78,8519.75,10460.625
58.800000000000004,8520.3125,10461.0
58.82,8520.75,10461.5
58.84,8520.8125,10461.75
58.86,8521.3125,10461.0625
58.88,8521.1875,10461.0625
58.9,8521.375,10460.3125
58.92,8521.6875,10459.375
58.94,8521.375,10458.0
58.96,8521.0625,10457.0
58.980000000000004,8520.875,10456.0625
59.0,8521.0625,10455.875
59.02,8521.0,10455.4375
59.04,8521.25,10455.6875
59.06,8521.1875,10455.25
59.08,8521.125,10454.75
59.1,8520.6875,10454.875
59.120000000000005,8521.0,10454.5
59.14,8521.5,10454.9375
59.160000000000004,8521.375,10454.9375
59.18,8521.625,10454.9375
59.2,8521.8125,10455.625
59.22,8522.4375,10456.125
59.24,8522.6875,10456.875
59.26,8522.875,10457.75
59.28,8523.375,10458.3125
59.300000000000004,8523.6875,10459.0625
59.32,8524.25,10459.75
59.34,8524.4375,10460.3125
59.36,8524.6875,10461.0625
59.38,8525.1875,10461.875
59.4,8525.6875,10462.5
59.42,8526.1875,10464.0625
59.44,8526.25,10464.3125
59.46,8526.5625,10465.5
59.480000000000004,8527.3125,10465.9375
59.5,8527.25,10466.875
59.52,8527.8125,10467.3125
59.54,8527.4375,10467.375
59.56,8527.4375,10468.0625
59.58,8527.875,10468.8125
59.6,8527.1875,10468.625
59.620000000000005,8527.1875,10468.6875
59.64,8527.1875,10469.4375
59.660000000000004,8527.3125,10469.8125
59.68,8527.1875,10470.1875
59.7,8526.875,10469.75
59.72,8526.625,10469.5625
59.74,8526.25,10469.3125
59.76,8525.5,10468.75
59.78,8525.3125,10467.5625
59.800000000000004,8524.8125,10466.9375
59.82,8524.8125,10466.0
59.84,8524.25,10465.375
59.86,8523.6875,10464.875
59.88,8523.4375,10464.25
59.9,8523.25,10463.9375
59.92,8523.0,10464.0625
59.94,8522.625,10463.5625
59.96,8522.1875,10463.25
59.980000000000004,8521.75,10462.875
60.0,8521.4375,10462.375
60.02,8520.625,10462.0625
60.04,8520.125,10461.3125
60.06,8519.9375,10461.0
60.08,8519.75,10460.875
60.1,8518.9375,10460.75
60.120000000000005,8518.625,10460.75
60.14,8518.5,10460.8125
60.160000000000004,8518.5625,10461.4375
60.18,8518.8125,10462.4375
60.2,8519.1875,10463.25
60.22,8518.75,10463.4375
60.24,8519.375,10464.0
60.26,8519.375,10464.5625
60.28,8519.4375,10465.0625
60.300000000000004,8519.6875,10465.875
60.32,8519.625,10465.9375
60.34,8519.625,10466.1875
60.36,8519.1875,10466.3125
60.38,8519.25,10466.75
60.4,8519.125,10466.6875
60.42,8519.125,10467.125
60.44,8519.375,10467.75
60.46,8519.125,10468.3125
60.480000000000004,8519.3125,10468.4375
60.5,8518.5,10468.4375
60.52,8519.25,10469.0
60.54,8519.125,10469.625
60.56,8519.25,10469.9375
60.58,8519.0,10469.75
60.6,8518.6875,10469.875
60.620000000000005,8518.3125,10469.1875
60.64,8518.4375,10468.4375
60.660000000000004,8518.125,10467.875
60.68,8517.75,10467.0
60.7,8517.3125,10465.8125
60.72,8516.5625,10464.5
60.74,8516.1875,10463.4375
60.76,8515.625,10462.3125
60.78,8515.375,10461.625
60.800000000000004,8515.1875,10461.0625
60.82,8514.875,10460.75
60.84,8514.625,10460.0625
60.86,8514.125,10459.4375
60.88,8514.125,10458.9375
60.9,8514.0625,10458.75
60.92,8513.25,10458.1875
60.94,8513.0625,10458.5625
60.96,8513.1875,10458.125
60.980000000000004,8513.0625,10458.0625
61.0,8513.8125,10458.4375
61.02,8514.0625,10458.9375
61.04,8513.9375,10459.5625
61.06,8514.375,10460.3125
61.08,8514.875,10461.125
61.1,8515.1875,10461.5
61.120000000000005,8515.6875,10462.4375
61.14,8516.6875,10463.0
61.160000000000004,8517.25,10464.25
61.18,8518.0625,10465.4375
61.2,8518.625,10466.4375
61.22,8519.4375,10467.375
61.24,8520.0625,10468.3125
61.26,8520.5625,10469.1875
61.28,8521.375,10470.3125
61.300000000000004,8521.8125,10471.5625
61.32,8522.625,10472.5625
61.34,8523.125,10473.625
61.36,8523.5625,10474.8125
61.38,8524.5625,10476.0
61.4,8525.25,10477.4375
61.42,8526.0625,10478.9375
61.44,8526.75,10480.0
61.46,8526.8125,10480.4375
61.480000000000004,8527.3125,10481.25
61.5,8527.6875,10481.8125
61.52,8527.625,10481.5625
61.54,8528.3125,10481.375
61.56,8528.125,10480.4375
61.58,8528.0,10479.625
61.6,8528.5,10479.5625
61.620000000000005,8528.8125,10479.375
61.64,8528.75,10478.75
61.660000000000004,8528.9375,10478.75
61.68,8529.1875,10478.75
61.7,8529.375,10478.5
61.72,8529.0625,10478.3125
61.74,8529.5625,10478.8125
61.76,8529.8125,10478.6875
61.78,8530.0625,10479.0625
61.800000000000004,8530.0625,10478.875
61.82,8530.5,10479.5
61.84,8531.0,10479.8125
61.86,8531.3125,10480.125
61.88,8531.5625,10480.5625
61.9,8532.0625,10480.5
61.92,8532.4375,10481.5
61.940000000000005,8532.8125,10481.8125
61.96,8533.1875,10482.625
61.980000000000004,8533.875,10483.625
62.0,8534.625,10484.3125
62.02,8535.25,10485.25
62.04,8535.5625,10485.625
62.06,8536.125,10486.375
62.08,8536.5,10486.9375
62.1,8537.0,10487.9375
62.120000000000005,8537.75,10488.5625
62.14,8538.1875,10489.625
62.160000000000004,8538.75,10490.4375
62.18,8539.625,10491.25
62.2,8539.25,10491.0625
62.22,8539.75,10491.5625
62.24,8540.5625,10492.8125
62.26,8541.0625,10493.6875
62.28,8541.1875,10493.75
62.300000000000004,8541.6875,10494.0
62.32,8541.8125,10494.0625
62.34,8542.0,10493.9375
62.36,8541.75,10493.0625
62.38,8541.5625,10491.6875
62.4,8541.3125,10490.9375
62.42,8541.3125,10490.0625
62.440000000000005,8540.8125,10489.3125
62.46,8541.25,10488.75
62.480000000000004,8541.0,10488.375
62.5,8541.25,10487.9375
62.52,8541.1875,10487.4375
62.54,8541.5625,10487.4375
62.56,8541.25,10487.0
62.58,8541.25,10487.0625
62.6,8541.4375,10486.6875
62.620000000000005,8541.125,10485.875
62.64,8541.0625,10485.3125
62.660000000000004,8540.625,10485.25
62.68,8540.1875,10484.5625
62.7,8539.75,10484.375
62.72,8539.3125,10484.1875
62.74,8539.375,10484.5625
62.76,8539.125,10484.8125
62.78,8538.6875,10484.625
62.800000000000004,8538.25,10484.5625
62.82,8538.0,10484.6875
62.84,8537.5625,10484.6875
62.86,8537.4375,10484.8125
62.88,8536.75,10484.9375
62.9,8536.375,10484.5
62.92,8536.625,10485.0625
62.940000000000005,8536.25,10485.125
62.96,8536.3125,10485.4375
62.980000000000004,8535.5625,10485.375
63.0,8535.875,10486.5
63.02,8535.6875,10486.9375
63.04,8535.25,10487.625
63.06,8534.9375,10487.375
63.08,8534.0,10487.3125
63.1,8533.5,10487.1875
63.120000000000005,8533.125,10486.4375
63.14,8532.375,10485.5
63.160000000000004,8531.75,10484.625
63.18,8531.0625,10483.1875
63.2,8530.8125,10482.25
63.22,8530.5,10481.75
63.24,8530.0,10481.0
63.26,8529.625,10480.1875
63.28,8529.125,10479.8125
63.300000000000004,8528.875,10479.625
63.32,8528.4375,10479.0625
63.34,8527.75,10478.5
63.36,8527.75,10478.4375
63.38,8527.5625,10478.4375
63.4,8527.0625,10478.625
63.42,8527.1875,10478.4375
63.440000000000005,8526.75,10478.0
63.46,8526.4375,10477.9375
63.480000000000004,8525.6875,10476.875
63.5,8525.8125,10476.9375
63.52,8525.25,10477.5
63.54,8525.1875,10477.5625
63.56,8525.1875,10478.125
63.58,8525.0625,10478.6875
63.6,8525.0625,10478.875
63.620000000000005,8525.25,10479.5
63.64,8525.5625,10480.3125
63.660000000000004,8525.625,10481.0
63.68,8525.75,10481.25
63.7,8525.9375,10481.875
63.72,8526.0625,10482.0
63.74,8525.9375,10482.0625
63.76,8526.0,10482.8125
63.78,8526.25,10483.625
63.800000000000004,8526.125,10483.6875
63.82,8525.9375,10483.6875
63.84,8526.9375,10485.3125
63.86,8526.5,10485.875
63.88,8526.8125,10486.1875
63.9,8526.9375,10486.1875
63.92,8526.75,10486.625
63.940000000000005,8526.75,10486.4375
63.96,8526.4375,10486.1875
63.980000000000004,8526.25,10485.1875
64.0,8525.9375,10484.5625
64.02,8526.0625,10484.125
64.04,8525.8125,10483.9375
64.06,8525.3125,10482.875
64.08,8524.9375,10481.9375
64.1,8524.375,10481.75
64.12,8524.375,10481.625
64.14,8524.6875,10482.125
64.16,8524.4375,10481.4375
64.18,8524.5,10480.75
64.2,8523.875,10480.375
64.22,8523.6875,10480.4375
64.24,8523.125,10481.25
64.26,8523.875,10481.875
64.28,8524.3125,10482.0625
64.3,8524.1875,10482.1875
64.32000000000001,8524.3125,10482.6875
64.34,8524.3125,10482.5
64.36,8524.5,10483.5625
64.38,8524.25,10483.625
64.4,8524.5,10484.4375
64.42,8525.0,10484.6875
64.44,8525.1875,10485.3125
64.46000000000001,8525.5,10485.875
64.48,8525.8125,10486.8125
64.5,8525.5625,10487.1875
64.52,8525.875,10487.875
64.54,8525.875,10487.5625
64.56,8525.75,10488.3125
64.58,8526.375,10489.1875
64.6,8526.3125,10489.375
64.62,8526.25,10489.8125
64.64,8526.5,10490.625
64.66,8526.6875,10491.5
64.68,8527.125,10491.875
64.7,8527.0625,10492.5625
64.72,8527.75,10493.3125
64.74,8528.125,10494.5
64.76,8528.25,10494.9375
64.78,8528.0,10495.375
64.8,8527.9375,10494.875
64.82000000000001,8528.0625,10495.0625
64.84,8527.75,10494.625
64.86,8527.8125,10494.1875
64.88,8527.0625,10492.875
64.9,8527.125,10492.5
64.92,8526.5625,10491.375
64.94,8526.4375,10490.6875
64.96000000000001,8526.0625,10489.9375
64.98,8526.0,10489.5625
65.0,8526.1875,10489.5
65.02,8526.4375,10490.0625
65.04,8526.0,10489.625
65.06,8525.9375,10489.4375
65.08,8526.25,10490.4375
65.1,8526.375,10490.3125
65.12,8526.25,10490.875
65.14,8526.625,10490.9375
65.16,8526.6875,10491.5
65.18,8527.1875,10492.0
65.2,8527.75,10492.9375
65.22,8528.0,10493.5625
65.24,8528.3125,10494.5
65.26,8529.0,10495.625
65.28,8529.75,10496.5625
65.3,8530.0,10497.3125
65.32000000000001,8530.375,10497.9375
65.34,8531.1875,10498.5625
65.36,8531.4375,10500.125
65.38,8532.3125,10501.1875
65.4,8532.6875,10501.9375
65.42,8533.1875,10502.625
65.44,8533.5,10503.75
65.46000000000001,8534.25,10505.0
65.48,8535.125,10506.0625
65.5,8535.3125,10506.8125
65.52,8535.6875,10508.0625
65.54,8536.25,10509.0625
65.56,8536.875,10510.0
65.58,8537.5,10511.375
65.6,8537.6875,10511.5
65.62,8538.4375,10513.1875
65.64,8539.25,10514.0625
65.66,8539.5625,10515.0
65.68,8540.0625,10515.5
65.7,8540.1875,10516.4375
65.72,8540.5,10516.75
65.74,8540.75,10517.3125
65.76,8541.0625,10517.1875
65.78,8541.0,10516.5
65.8,8540.5625,10515.3125
65.82000000000001,8540.6875,10514.9375
65.84,8540.25,10514.5
65.86,8540.0,10513.625
65.88,8539.875,10513.3125
65.9,8539.5,10512.875
65.92,8540.125,10513.5
65.94,8540.0625,10513.375
65.96000000000001,8540.0,10513.1875
65.98,8540.375,10513.25
66.0,8540.625,10513.5625
66.02,8540.875,10513.5
66.04,8541.125,10514.25
66.06,8541.3125,10514.75
66.08,8541.6875,10514.5625
66.1,8541.5,10515.0
66.12,8542.0,10515.4375
66.14,8542.5625,10516.0625
66.16,8543.375,10516.6875
66.18,8543.5,10517.3125
66.2,8543.8125,10517.9375
66.22,8544.0,10518.5
66.24,8544.75,10519.125
66.26,8545.0,10519.625
66.28,8545.4375,10519.9375
66.3,8545.5,10519.8125
66.32000000000001,8545.9375,10520.875
66.34,8546.0625,10521.0
66.36,8545.9375,10521.4375
66.38,8546.8125,10521.9375
66.4,8546.9375,10522.5
66.42,8546.8125,10522.8125
66.44,8547.25,10523.1875
66.46000000000001,8547.8125,10524.1875
66.48,8547.9375,10524.875
66.5,8548.3125,10525.0625
66.52,8548.875,10525.9375
66.54,8549.1875,10526.75
66.56,8549.75,10526.75
66.58,8550.0,10527.3125
66.6,8549.5,10527.0
66.62,8549.9375,10526.6875
66.64,8549.75,10525.75
66.66,8549.5625,10524.9375
66.68,8548.875,10523.875
66.7,8548.5625,10522.5
66.72,8547.875,10521.125
66.74,8547.3125,10520.375
66.76,8546.6875,10519.6875
66.78,8546.125,10519.0
66.8,8545.75,10518.875
66.82000000000001,8545.5625,10518.5
66.84,8545.0,10517.875
66.86,8544.8125,10517.875
66.88,8544.25,10517.75
66.9,8544.125,10517.5625
66.92,8544.125,10517.75
66.94,8543.5,10517.1875
66.96000000000001,8543.75,10517.5625
66.98,8543.6875,10518.0625
67.0,8544.0,10517.9375
67.02,8543.625,10518.8125
67.04,8543.9375,10519.0
67.06,8543.75,10519.5625
67.08,8543.625,10519.5
67.1,8543.625,10520.1875
67.12,8543.875,10520.5625
67.14,8543.875,10520.6875
67.16,8543.75,10521.0625
67.18,8543.625,10520.9375
67.2,8543.5,10521.6875
67.22,8543.75,10522.0
67.24,8543.5,10522.625
67.26,8543.6875,10522.6875
67.28,8543.6875,10522.8125
67.3,8543.5,10523.25
67.32000000000001,8543.25,10523.5625
67.34,8543.125,10523.875
67.36,8543.375,10524.5625
67.38,8543.0625,10525.0625
67.4,8543.125,10525.0625
67.42,8543.25,10525.625
67.44,8543.5,10526.6875
67.46000000000001,8543.8125,10527.0625
67.48,8543.4375,10526.875
67.5,8542.9375,10526.8125
67.52,8542.5625,10526.75
67.54,8543.0,10526.5
67.56,8541.9375,10525.625
67.58,8541.75,10524.5625
67.6,8541.4375,10523.8125
67.62,8541.3125,10522.4375
67.64,8540.375,10521.5625
67.66,8539.75,10520.9375
67.68,8539.625,10520.1875
67.7,8539.5,10519.75
67.72,8539.5,10519.6875
67.74,8539.4375,10519.8125
67.76,8539.4375,10519.5
67.78,8538.6875,10518.5
67.8,8538.5,10518.5
67.82000000000001,8538.75,10518.8125
67.84,8538.25,10518.9375
67.86,8538.5,10518.875
67.88,8538.5,10518.875
67.9,8538.625,10518.9375
67.92,8538.875,10519.3125
67.94,8538.8125,10519.1875
67.96000000000001,8538.4375,10519.125
67.98,8538.6875,10520.125
68.0,8538.75,10520.25
68.02,8538.6875,10520.6875
68.04,8538.6875,10520.4375
68.06,8538.8125,10521.3125
68.08,8538.875,10521.6875
68.1,8539.0,10521.8125
68.12,8539.375,10522.3125
68.14,8539.4375,10522.8125
68.16,8539.6875,10523.1875
68.18,8539.375,10523.5
68.2,8539.5,10523.5
68.22,8539.5625,10524.3125
68.24,8540.0,10524.625
68.26,8539.75,10524.625
68.28,8539.9375,10525.25
68.3,8540.125,10526.625
68.32000000000001,8540.4375,10527.125
68.34,8540.8125,10526.6875
68.36,8540.6875,10527.875
68.38,8541.125,10529.0
68.4,8541.75,10529.8125
68.42,8542.0625,10530.1875
68.44,8541.5,10529.8125
68.46000000000001,8541.375,10529.6875
68.48,8541.25,10529.1875
68.5,8540.9375,10528.375
68.52,8540.375,10527.5625
68.54,8540.5,10526.625
68.56,8539.875,10525.5
68.58,8539.875,10525.0
68.60000000000001,8539.5625,10523.9375
68.62,8538.9375,10523.1875
68.64,8538.9375,10523.0
68.66,8539.0,10522.75
68.68,8538.9375,10522.3125
68.7,8538.5,10522.25
68.72,8538.75,10521.8125
68.74,8538.5625,10521.5625
68.76,8538.5625,10521.9375
68.78,8538.75,10521.9375
68.8,8538.25,10522.0
68.82000000000001,8538.6875,10522.25
68.84,8538.625,10522.25
68.86,8538.625,10522.4375
68.88,8539.0,10522.5625
68.9,8539.1875,10523.4375
68.92,8539.3125,10523.875
68.94,8539.875,10524.6875
68.96000000000001,8540.4375,10525.5
68.98,8540.5,10525.8125
69.0,8540.5625,10526.4375
69.02,8541.625,10527.3125
69.04,8542.0,10527.75
69.06,8542.25,10528.8125
69.08,8542.75,10529.5625
69.10000000000001,8543.25,10530.375
69.12,8543.9375,10531.4375
69.14,8544.3125,10532.5625
69.16,8545.1875,10533.9375
69.18,8545.6875,10534.875
69.2,8546.125,10535.1875
69.22,8546.875,10536.0625
69.24,8547.25,10537.375
69.26,8548.125,10538.375
69.28,8548.0625,10539.125
69.3,8548.8125,10540.5
69.32000000000001,8549.5,10541.25
69.34,8550.125,10542.625
69.36,8550.875,10543.1875
69.38,8550.875,10543.5
69.4,8551.0625,10543.9375
69.42,8551.5625,10544.8125
69.44,8552.0,10544.6875
69.46000000000001,8552.125,10544.25
69.48,8552.25,10543.125
69.5,8552.125,10542.875
69.52,8552.1875,10542.125
69.54,8552.1875,10542.0
69.56,8552.125,10541.5
69.58,8552.625,10541.625
69.60000000000001,8552.875,10541.8125
69.62,8553.125,10541.5625
69.64,8553.125,10541.5625
69.66,8553.75,10541.375
69.68,8554.0,10542.5
69.7,8554.25,10542.5625
69.72,8554.75,10542.75
69.74,8554.8125,10542.875
69.76,8555.3125,10543.375
69.78,8555.6875,10543.75
69.8,8556.25,10544.5
69.82000000000001,8556.5,10544.8125
69.84,8557.1875,10545.875
69.86,8557.9375,10546.75
69.88,8558.25,10547.25
69.9,8558.8125,10548.1875
69.92,8559.0625,10548.1875
69.94,8559.3125,10548.4375
69.96000000000001,8559.6875,10548.75
69.98,8560.1875,10549.8125
70.0,8560.375,10549.9375
70.02,8560.8125,10551.0625
70.04,8560.875,10551.625
70.06,8561.3125,10551.9375
70.08,8561.875,10552.5
70.10000000000001,8561.6875,10552.75
70.12,8562.25,10553.1875
70.14,8562.4375,10553.6875
70.16,8562.8125,10553.9375
70.18,8562.375,10553.8125
70.2,8562.375,10554.3125
70.22,8562.5,10555.0625
70.24,8562.9375,10555.5625
70.26,8562.75,10555.5625
70.28,8562.4375,10555.1875
70.3,8562.125,10555.0625
70.32000000000001,8561.5,10554.5
70.34,8561.4375,10554.125
70.36,8560.9375,10552.625
70.38,8560.5625,10551.75
70.4,8560.0625,10550.5
70.42,8559.5625,10549.5625
70.44,8558.625,10548.625
70.46000000000001,8558.1875,10547.4375
70.48,8557.5,10546.875
70.5,8557.5625,10546.6875
70.52,8557.0625,10546.1875
70.54,8556.4375,10545.6875
70.56,8556.75,10545.0
70.58,8555.9375,10544.875
70.60000000000001,8555.8125,10544.5
70.62,8555.5625,10544.75
70.64,8555.5625,10544.0
70.66,8555.1875,10544.125
70.68,8555.125,10544.375
70.7,8554.875,10544.5
70.72,8554.8125,10544.125
70.74,8554.625,10544.375
70.76,8554.8125,10545.0
70.78,8554.9375,10545.375
70.8,8554.5625,10545.5
70.82000000000001,8554.4375,10545.9375
70.84,8554.3125,10545.75
70.86,8554.0625,10545.75
70.88,8553.875,10546.0625
70.9,8553.75,10546.0
70.92,8553.5,10545.9375
70.94,8553.0,10545.875
70.96000000000001,8553.0625,10545.6875
70.98,8552.625,10545.8125
71.0,8552.5,10546.125
71.02,8552.5625,10546.125
71.04,8552.0625,10546.25
71.06,8551.9375,10545.8125
71.08,8551.6875,10546.4375
71.10000000000001,8551.875,10547.0
71.12,8552.0625,10547.5625
71.14,8551.875,10547.375
71.16,8551.6875,10547.125
71.18,8551.5,10547.0625
71.2,8550.9375,10546.5
71.22,8550.625,10545.3125
71.24,8550.0,10544.5625
71.26,8549.9375,10543.625
71.28,8549.4375,10542.5625
71.3,8549.0625,10541.1875
71.32000000000001,8548.625,10540.4375
71.34,8548.0625,10539.5
71.36,8548.0,10539.25
71.38,8547.9375,10539.375
71.4,8547.75,10539.1875
71.42,8547.5625,10538.3125
71.44,8546.9375,10537.875
71.46000000000001,8547.0625,10537.5
71.48,8546.375,10537.1875
71.5,8546.375,10537.625
71.52,8546.625,10537.4375
71.54,8546.375,10537.125
71.56,8546.75,10537.6875
71.58,8546.6875,10537.375
71.60000000000001,8546.6875,10537.6875
71.62,8546.8125,10538.5625
71.64,8546.9375,10538.6875
71.66,8547.0625,10538.6875
71.68,8547.0,10539.1875
71.7,8546.75,10539.5625
71.72,8547.25,10539.8125
71.74,8547.3125,10540.375
71.76,8547.25,10540.875
71.78,8547.125,10541.1875
71.8,8547.1875,10541.1875
71.82000000000001,8547.5625,10541.8125
71.84,8547.25,10541.8125
71.86,8547.375,10542.375
71.88,8547.5625,10542.625
71.9,8547.875,10543.25
71.92,8548.0,10544.0
71.94,8548.25,10544.25
71.96000000000001,8548.9375,10545.0625
71.98,8548.8125,10545.8125
72.0,8548.6875,10545.6875
72.02,8548.9375,10545.9375
72.04,8548.5625,10546.125
72.06,8548.25,10545.4375
72.08,8547.9375,10544.8125
72.10000000000001,8547.75,10544.125
72.12,8547.625,10543.0625
72.14,8547.3125,10542.25
72.16,8546.75,10541.625
72.18,8547.3125,10541.0625
72.2,8546.4375,10540.625
72.22,8546.375,10540.5
72.24,8546.25,10540.5625
72.26,8546.875,10540.5
72.28,8546.875,10540.6875
72.3,8547.0625,10540.6875
72.32000000000001,8547.25,10540.1875
72.34,8547.4375,10540.1875
72.36,8547.9375,10541.5
72.38,8548.3125,10541.875
72.4,8548.8125,10542.0625
72.42,8548.9375,10542.5625
72.44,8550.0625,10543.8125
72.46000000000001,8550.1875,10544.1875
72.48,8550.6875,10545.125
72.5,8551.1875,10545.8125
72.52,8551.8125,10547.0625
72.54,8552.8125,10547.9375
72.56,8553.0,10548.3125
72.58,8553.25,10549.125
72.60000000000001,8553.625,10550.0625
72.62,8554.125,10550.5625
72.64,8554.1875,10551.0
72.66,8555.0,10552.3125
72.68,8555.5,10553.375
72.7,8556.1875,10554.25
72.72,8556.8125,10555.125
72.74,8557.3125,10556.0625
72.76,8557.8125,10557.5
72.78,8558.5625,10557.9375
72.8,8558.5625,10558.375
72.82000000000001,8559.5,10559.5625
72.84,8560.1875,10560.8125
72.86,8560.4375,10561.75
72.88,8560.5,10561.8125
72.9,8561.0625,10561.875
72.92,8561.0625,10562.8125
72.94,8561.6875,10562.875
72.96000000000001,8561.375,10562.25
72.98,8561.4375,10561.4375
73.0,8561.125,10560.625
73.02,8561.3125,10560.125
73.04,8561.25,10559.4375
73.06,8561.1875,10559.0
73.08,8561.5,10558.3125
73.10000000000001,8562.0625,10558.625
73.12,8562.25,10558.875
73.14,8562.4375,10558.6875
73.16,8562.3125,10558.375
73.18,8562.5625,10558.4375
73.2,8562.8125,10558.8125
73.22,8562.6875,10558.25
73.24,8562.5,10558.3125
73.26,8562.3125,10557.875
73.28,8562.5,10558.125
73.3,8562.3125,10558.0625
73.32000000000001,8562.375,10558.0
73.34,8562.4375,10558.5
73.36,8562.6875,10558.8125
73.38,8562.8125,10559.375
73.4,8562.75,10559.25
73.42,8562.4375,10559.1875
73.44,8562.125,10559.25
73.46000000000001,8562.0625,10559.375
73.48,8561.875,10559.1875
73.5,8561.625,10559.375
73.52,8561.4375,10559.3125
73.54,8561.0,10559.1875
73.56,8560.6875,10559.1875
73.58,8560.4375,10559.5625
73.60000000000001,8560.3125,10559.375
73.62,8560.1875,10559.5625
73.64,8559.8125,10559.3125
73.66,8559.8125,10559.1875
73.68,8559.1875,10559.75
73.7,8559.875,10560.125
73.72,8559.4375,10559.75
73.74,8559.0625,10559.4375
73.76,8558.625,10559.1875
73.78,8558.1875,10558.9375
73.8,8558.375,10558.4375
73.82000000000001,8557.5625,10557.3125
73.84,8557.0625,10555.5
73.86,8556.5625,10554.75
73.88,8556.0625,10553.5625
73.9,8555.75,10552.625
73.92,8555.375,10552.1875
73.94,8554.75,10551.25
73.96000000000001,8554.75,10551.0
73.98,8554.8125,10551.0625
74.0,8554.375,10550.0
74.02,8553.625,10549.6875
74.04,8553.625,10549.5
74.06,8554.25,10549.6875
74.08,8553.8125,10549.1875
74.10000000000001,8553.9375,10548.9375
74.12,8553.1875,10548.375
74.14,8554.0,10548.5625
74.16,8554.0625,10548.875
74.18,8553.9375,10549.0
74.2,8554.5625,10549.5625
74.22,8554.4375,10550.3125
74.24,8554.9375,10551.0
74.26,8555.5,10551.875
74.28,8555.375,10552.25
74.3,8556.1875,10553.0625
74.32000000000001,8555.875,10553.9375
74.34,8556.5625,10554.625
74.36,8556.8125,10554.9375
74.38,8557.125,10555.375
74.4,8557.375,10556.1875
74.42,8557.0625,10557.1875
74.44,8557.1875,10556.5625
74.46000000000001,8557.25,10557.125
74.48,8558.125,10558.1875
74.5,8558.0,10558.5
74.52,8557.875,10558.6875
74.54,8558.5625,10559.5625
74.56,8559.4375,10560.6875
74.58,8559.125,10560.6875
74.60000000000001,8559.125,10560.625
74.62,8558.625,10560.5625
74.64,8558.75,10560.375
74.66,8558.4375,10560.0
74.68,8558.0625,10558.8125
74.7,8557.625,10557.6875
74.72,8557.3125,10556.625
74.74,8557.0,10555.625
74.76,8556.3125,10555.0625
74.78,8556.125,10554.1875
74.8,8556.0,10553.6875
74.82000000000001,8555.9375,10553.9375
74.84,8556.25,10553.5
74.86,8555.875,10552.9375
74.88,8555.875,10552.0625
74.9,8555.75,10552.3125
74.92,8555.5625,10552.375
74.94,8555.4375,10552.4375
74.96000000000001,8555.25,10552.25
74.98,8555.25,10552.625
75.0,8555.125,10552.25
75.02,8555.375,10552.75
75.04,8555.625,10552.5625
75.06,8555.625,10553.25
75.08,8555.5625,10553.6875
75.10000000000001,8555.6875,10553.625
75.12,8555.75,10553.6875
75.14,8555.6875,10554.3125
75.16,8555.4375,10554.3125
75.18,8555.625,10555.125
75.2,8556.1875,10555.625
75.22,8555.8125,10555.625
75.24,8555.875,10555.9375
75.26,8556.0625,10556.3125
75.28,8556.25,10557.5625
75.3,8556.5,10557.9375
75.32000000000001,8556.375,10558.0
75.34,8556.125,10558.4375
75.36,8556.375,10559.0625
75.38,8556.875,10559.0625
75.4,8556.3125,10559.375
75.42,8556.0,10559.3125
75.44,8555.625,10558.75
75.46000000000001,8555.6875,10558.4375
75.48,8554.875,10557.1875
75.5,8554.5,10555.875
75.52,8554.375,10555.1875
75.54,8554.4375,10554.4375
75.56,8553.875,10553.3125
75.58,8553.25,10552.25
75.60000000000001,8552.9375,10551.5625
75.62,8552.9375,10551.3125
75.64,8553.0,10551.625
75.66,8552.625,10550.5
75.68,8552.0,10550.125
75.7,8552.0,10550.4375
75.72,8552.25,10550.0625
75.74,8551.75,10550.3125
75.76,8551.875,10550.5
75.78,8551.875,10550.4375
75.8,8552.0,10550.3125
75.82000000000001,8552.125,10550.4375
75.84,8552.0625,10550.3125
75.86,8552.25,10551.1875
75.88,8552.4375,10551.4375
75.9,8552.6875,10552.375
75.92,8552.5,10552.5
75.94,8552.8125,10553.375
75.96000000000001,8552.9375,10553.6875
75.98,8553.25,10554.375
76.0,8553.5,10554.875
76.02,8554.0,10555.625
76.04,8553.875,10555.9375
76.06,8554.5625,10557.0
76.08,8554.8125,10557.5625
76.10000000000001,8555.4375,10558.3125
76.12,8555.875,10558.875
76.14,8556.4375,10560.0
76.16,8557.1875,10560.75
76.18,8557.5625,10561.3125
76.2,8557.375,10561.75
76.22,8557.75,10561.875
76.24,8558.375,10562.125
76.26,8558.875,10562.125
76.28,8559.25,10561.75
76.3,8559.0,10561.0625
76.32000000000001,8559.125,10560.75
76.34,8558.9375,10560.4375
76.36,8559.25,10559.875
76.38,8559.125,10560.0625
76.4,8560.0,10560.9375
76.42,8560.375,10560.75
76.44,8560.625,10561.125
76.46000000000001,8560.9375,10561.5
76.48,8561.375,10561.75
76.5,8561.5,10562.375
76.52,8561.625,10562.5
76.54,8562.0,10562.6875
76.56,8562.625,10562.9375
76.58,8562.8125,10563.4375
76.60000000000001,8563.5,10564.125
76.62,8563.9375,10565.0
76.64,8564.6875,10565.875
76.66,8564.75,10566.3125
76.68,8565.25,10566.8125
76.7,8565.6875,10567.625
76.72,8566.125,10568.5
76.74,8566.75,10569.3125
76.76,8567.3125,10570.125
76.78,8567.4375,10570.3125
76.8,8568.1875,10571.3125
76.82000000000001,8568.3125,10572.0625
76.84,8569.0,10572.8125
76.86,8569.25,10573.8125
76.88,8569.9375,10574.4375
76.9,8570.0,10574.625
76.92,8570.625,10575.3125
76.94,8571.5625,10576.75
76.96000000000001,8571.875,10577.1875
76.98,8571.6875,10577.5625
77.0,8571.9375,10577.4375
77.02,8572.125,10577.75
77.04,8572.0625,10577.5
77.06,8571.9375,10576.625
77.08,8571.875,10575.625
77.10000000000001,8571.6875,10574.75
77.12,8571.6875,10574.0625
77.14,8571.5,10573.0
77.16,8571.4375,10572.625
77.18,8571.5625,10572.25
77.2,8571.0,10571.75
77.22,8571.0625,10571.375
77.24,8570.6875,10570.3125
77.26,8571.0625,10571.0
77.28,8570.75,10570.25
77.3,8570.75,10570.0
77.32000000000001,8570.75,10569.5625
77.34,8570.4375,10569.5
77.36,8570.4375,10569.125
77.38,8570.3125,10569.375
77.4,8570.5,10569.3125
77.42,8570.3125,10569.3125
77.44,8570.1875,10569.3125
77.46000000000001,8570.0,10569.625
77.48,8569.75,10569.8125
77.5,8569.6875,10569.75
77.52,8570.0,10570.5
77.54,8570.0,10570.8125
77.56,8570.0,10571.1875
77.58,8570.1875,10571.8125
77.60000000000001,8569.875,10572.0
77.62,8569.75,10572.1875
77.64,8569.625,10572.3125
77.66,8569.6875,10572.625
77.68,8569.5,10573.125
77.7,8569.125,10572.5
77.72,8569.0,10573.0
77.74,8569.375,10573.625
77.76,8568.9375,10573.375
77.78,8567.8125,10572.625
77.8,8567.25,10572.0625
77.82000000000001,8566.4375,10571.1875
77.84,8565.9375,10570.3125
77.86,8565.75,10569.1875
77.88,8564.9375,10568.1875
77.9,8564.1875,10566.6875
77.92,8563.9375,10565.5625
77.94,8563.4375,10564.625
77.96000000000001,8562.25,10563.125
77.98,8561.1875,10561.9375
78.0,8561.1875,10561.875
78.02,8561.3125,10561.9375
78.04,8560.5625,10560.8125
78.06,8560.0,10560.0625
78.08,8559.9375,10559.5
78.10000000000001,8559.6875,10559.4375
78.12,8559.25,10559.8125
78.14,8559.125,10559.125
78.16,8558.9375,10559.3125
78.18,8558.9375,10558.875
78.2,8558.4375,10558.8125
78.22,8558.4375,10559.1875
78.24,8558.5625,10560.125
78.26,8558.9375,10560.0625
78.28,8558.6875,10560.4375
78.3,8558.5625,10560.25
78.32000000000001,8558.1875,10560.8125
78.34,8558.5,10561.375
78.36,8558.3125,10561.6875
78.38,8558.3125,10561.8125
78.4,8558.0,10562.125
78.42,8558.25,10562.0625
78.44,8558.5,10562.8125
78.46000000000001,8558.6875,10563.125
78.48,8558.75,10563.1875
78.5,8558.75,10563.8125
78.52,8559.0625,10564.5625
78.54,8558.875,10564.75
78.56,8559.125,10565.25
78.58,8559.75,10566.25
78.60000000000001,8559.625,10566.75
78.62,8559.375,10566.625
78.64,8559.0625,10566.3125
78.66,8559.0625,10566.125
78.68,8558.8125,10565.625
78.7,8558.1875,10564.4375
78.72,8557.9375,10563.375
78.74,8557.6875,10562.375
78.76,8557.0625,10561.25
78.78,8556.875,10560.1875
78.8,8556.375,10559.5
78.82000000000001,8556.0,10558.875
78.84,8555.6875,10558.5625
78.86,8555.375,10557.875
78.88,8555.1875,10557.25
78.9,8554.875,10556.4375
78.92,8554.375,10556.3125
78.94,8554.3125,10555.9375
78.96000000000001,8554.25,10556.0625
78.98,8554.3125,10555.9375
79.0,8554.4375,10555.9375
79.02,8554.5,10556.125
79.04,8554.1875,10555.875
79.06,8554.3125,10556.4375
79.08,8554.625,10556.5625
79.10000000000001,8554.875,10557.25
79.12,8554.875,10558.0
79.14,8555.125,10558.0
79.16,8555.1875,10558.5625
79.18,8555.375,10559.0
79.2,8555.4375,10559.375
79.22,8555.4375,10559.5625
79.24,8555.75,10559.8125
79.26,8555.6875,10559.8125
79.28,8555.75,10560.5
79.3,8555.6875,10561.0625
79.32000000000001,8556.3125,10561.75
79.34,8556.1875,10561.75
79.36,8556.1875,10562.375
79.38,8556.625,10562.9375
79.4,8557.125,10564.0625
79.42,8557.5,10564.4375
79.44,8557.5,10565.0625
79.46000000000001,8558.3125,10566.1875
79.48,8558.9375,10567.0
79.5,8558.9375,10567.4375
79.52,8558.9375,10567.6875
79.54,8559.375,10567.875
79.56,8559.5625,10567.8125
79.58,8559.25,10567.5
79.60000000000001,8559.875,10567.125
79.62,8559.9375,10566.625
79.64,8560.0625,10566.1875
79.66,8560.25,10565.625
79.68,8559.6875,10565.5625
79.7,8560.0,10565.25
79.72,8561.0625,10566.1875
79.74,8561.125,10566.4375
79.76,8561.25,10566.4375
79.78,8561.1875,10566.25
79.8,8561.5,10566.625
79.82000000000001,8561.9375,10566.9375
79.84,8562.25,10566.875
79.86,8562.5625,10567.5
79.88,8563.375,10568.5
79.9,8563.625,10568.9375
79.92,8564.0625,10569.5625
79.94,8564.5625,10570.25
79.96000000000001,8565.25,10570.9375
79.98,8565.75,10572.0
80.0,8565.875,10572.5
80.02,8566.625,10573.3125
80.04,8567.0625,10573.75
80.06,8567.4375,10574.25
80.08,8567.6875,10574.875
80.10000000000001,8568.125,10575.25
80.12,8568.8125,10576.5
80.14,8568.6875,10576.875
80.16,8569.1875,10577.5625
80.18,8569.6875,10578.4375
80.2,8569.75,10578.3125
80.22,8570.375,10578.875
80.24,8570.625,10579.5625
80.26,8571.125,10580.375
80.28,8571.375,10581.25
80.3,8571.75,10581.625
80.32000000000001,8572.375,10582.875
80.34,8573.3125,10584.375
80.36,8573.625,10584.6875
80.38,8573.375,10585.0625
80.4,8574.0625,10585.0625
80.42,8573.8125,10585.0
80.44,8573.625,10584.625
80.46000000000001,8573.625,10583.625
80.48,8573.75,10583.125
80.5,8573.8125,10582.375
80.52,8573.75,10581.75
80.54,8573.4375,10580.875
80.56,8573.25,10580.25
80.58,8573.125,10580.5
80.60000000000001,8572.875,10580.375
80.62,8572.625,10579.625
80.64,8573.0625,10579.5
80.66,8572.4375,10579.3125
80.68,8572.1875,10578.9375
80.7,8571.75,10578.75
80.72,8571.5625,10578.0625
80.74,8571.25,10578.25
80.76,8571.4375,10578.25
80.78,8571.0625,10577.8125
80.8,8570.75,10577.625
80.82000000000001,8570.5625,10577.75
80.84,8570.0625,10577.625
80.86,8570.125,10577.5625
80.88,8570.125,10577.75
80.9,8570.125,10578.25
80.92,8569.75,10577.75
80.94,8569.1875,10577.875
80.96000000000001,8569.0625,10578.0625
80.98,8569.0625,10577.8125
81.0,8568.6875,10577.875
81.02,8568.3125,10577.8125
81.04,8568.375,10578.1875
81.06,8567.8125,10577.8125
81.08,8567.875,10577.875
81.10000000000001,8568.0,10578.1875
81.12,8567.6875,10578.25
81.14,8567.4375,10578.25
81.16,8567.4375,10578.9375
81.18,8567.6875,10579.0
81.2,8567.6875,10578.75
81.22,8567.0625,10578.5625
81.24,8567.0,10578.4375
81.26,8566.0,10577.625
81.28,8565.5,10576.6875
81.3,8565.1875,10575.875
81.32000000000001,8564.8125,10574.6875
81.34,8564.5625,10573.5
81.36,8564.1875,10572.75
81.38,8564.1875,10572.1875
81.4,8563.1875,10571.375
81.42,8563.0,10571.25
81.44,8563.0625,10571.3125
81.46000000000001,8562.8125,10570.6875
81.48,8562.625,10570.3125
81.5,8562.375,10569.8125
81.52,8562.1875,10569.625
81.54,8562.25,10569.8125
81.56,8561.875,10569.4375
81.58,8562.0,10569.3125
81.60000000000001,8561.375,10568.8125
81.62,8561.5,10568.9375
81.64,8561.1875,10568.6875
81.66,8561.3125,10568.875
81.68,8561.25,10569.375
81.7,8561.5625,10569.9375
81.72,8561.6875,10569.8125
81.74,8561.625,10570.1875
81.76,8561.6875,10570.1875
81.78,8561.8125,10571.0
81.8,8561.6875,10571.4375
81.82000000000001,8561.4375,10570.4375
81.84,8561.5,10571.0
81.86,8561.625,10571.1875
81.88,8561.375,10571.3125
81.9,8561.8125,10571.6875
81.92,8561.875,10572.0625
81.94,8561.875,10572.4375
81.96000000000001,8562.1875,10573.0625
81.98,8562.1875,10573.5625
82.0,8561.9375,10573.0625
82.02,8562.25,10573.625
82.04,8562.375,10574.6875
82.06,8562.5,10575.0
82.08,8562.5625,10574.625
82.10000000000001,8562.25,10574.625
82.12,8562.1875,10574.25
82.14,8561.625,10573.75
82.16,8561.375,10572.875
82.18,8561.25,10572.25
82.2,8560.75,10570.875
82.22,8560.3125,10570.125
82.24,8560.25,10569.3125
82.26,8559.8125,10567.625
82.28,8559.5,10567.5
82.3,8559.625,10568.0625
82.32000000000001,8559.75,10567.5625
82.34,8559.25,10566.8125
82.36,8559.25,10566.8125
82.38,8559.25,10566.125
82.4,8559.125,10566.3125
82.42,8559.1875,10566.9375
82.44,8559.3125,10567.25
82.46000000000001,8559.5625,10567.4375
82.48,8559.5625,10567.6875
82.5,8560.5625,10567.9375
82.52,8560.625,10568.625
82.54,8560.875,10569.1875
82.56,8561.4375,10569.6875
82.58,8561.8125,10570.75
82.60000000000001,8562.6875,10571.5625
82.62,8563.1875,10572.5625
82.64,8563.75,10573.3125
82.66,8564.0,10573.875
82.68,8564.625,10575.125
82.7,8565.25,10575.625
82.72,8565.4375,10576.375
82.74,8566.0,10577.1875
82.76,8566.0625,10577.75
82.78,8566.875,10578.6875
82.8,8567.5625,10579.5625
82.82000000000001,8568.0625,10580.5625
82.84,8568.1875,10581.3125
82.86,8568.875,10582.25
82.88,8569.6875,10583.0625
82.9,8570.3125,10584.3125
82.92,8569.9375,10584.0
82.94,8569.6875,10584.25
82.96000000000001,8570.4375,10584.625
82.98,8570.3125,10584.6875
83.0,8570.6875,10584.3125
83.02,8570.25,10583.4375
83.04,8570.5,10582.4375
83.06,8570.375,10581.375
83.08,8570.1875,10581.4375
83.10000000000001,8570.1875,10580.6875
83.12,8570.0625,10580.1875
83.14,8570.0,10580.25
83.16,8570.4375,10580.1875
83.18,8570.5625,10579.75
83.2,8570.4375,10579.6875
83.22,8570.5625,10579.8125
83.24,8570.4375,10579.75
83.26,8571.0,10580.0625
83.28,8571.0625,10579.6875
83.3,8570.9375,10579.6875
83.32000000000001,8571.5625,10579.8125
83.34,8571.8125,10580.3125
83.36,8572.125,10580.6875
83.38,8572.4375,10581.0
83.4,8572.6875,10581.6875
83.42,8573.3125,10582.1875
83.44,8573.6875,10582.875
83.46000000000001,8574.0,10583.5625
83.48,8574.375,10584.125
83.5,8574.5,10584.5625
83.52,8575.0,10585.375
83.54,8575.5625,10586.25
83.56,8575.6875,10586.3125
83.58,8575.5,10585.8125
83.60000000000001,8575.6875,10586.0625
83.62,8576.0,10586.875
83.64,8575.9375,10587.125
83.66,8576.125,10587.0
83.68,8575.8125,10587.5625
83.7,8576.4375,10588.6875
83.72,8576.75,10588.8125
83.74,8576.4375,10588.4375
83.76,8576.0,10588.75
83.78,8575.375,10588.1875
83.8,8575.3125,10587.8125
83.82000000000001,8574.6875,10586.5625
83.84,8573.9375,10585.6875
83.86,8573.75,10584.3125
83.88,8573.0625,10583.5
83.9,8572.625,10582.5625
83.92,8572.5625,10582.25
83.94,8571.9375,10581.625
83.96000000000001,8571.6875,10581.3125
83.98,8571.0,10580.5
84.0,8570.625,10579.9375
84.02,8569.8125,10578.9375
84.04,8569.8125,10579.0
84.06,8569.75,10578.75
84.08,8569.0625,10578.0625
84.10000000000001,8569.4375,10578.125
84.12,8569.0,10577.875
84.14,8568.125,10577.6875
84.16,8568.4375,10577.5
84.18,8568.5,10578.3125
84.2,8568.5625,10578.25
84.22,8568.9375,10578.375
84.24,8568.3125,10578.9375
84.26,8568.4375,10579.4375
84.28,8568.9375,10579.4375
84.3,8568.625,10579.5
84.32000000000001,8568.5,10579.6875
84.34,8568.5,10579.75
84.36,8568.5,10580.25
84.38,8568.4375,10579.875
84.4,8568.4375,10580.4375
84.42,8568.1875,10580.6875
84.44,8568.0625,10581.0625
84.46000000000001,8567.9375,10581.5625
84.48,8568.125,10581.5
84.5,8568.0625,10581.5625
84.52,8568.4375,10582.5
84.54,8568.5625,10582.75
84.56,8568.125,10582.5625
84.58,8567.9375,10582.4375
84.60000000000001,8567.6875,10582.0
84.62,8567.25,10581.75
84.64,8566.6875,10580.5
84.66,8565.875,10578.875
84.68,8565.4375,10577.0
84.7,8564.75,10575.75
84.72,8564.5,10574.875
84.74,8563.875,10573.1875
84.76,8562.75,10571.9375
84.78,8562.6875,10571.1875
84.8,8562.6875,10570.8125
84.82000000000001,8562.125,10570.4375
84.84,8561.875,10569.3125
84.86,8561.5625,10569.3125
84.88,8560.9375,10568.75
84.9,8560.875,10568.375
84.92,8560.875,10567.75
84.94,8560.625,10567.4375
84.96000000000001,8560.375,10566.9375
84.98,8560.5625,10567.1875
85.0,8560.25,10567.1875
85.02,8560.25,10566.4375
85.04,8560.0625,10566.4375
85.06,8560.0,10566.0625
85.08,8559.75,10565.75
85.10000000000001,8559.5,10565.4375
85.12,8559.125,10565.5
85.14,8558.875,10564.8125
85.16,8559.0,10564.6875
85.18,8558.9375,10564.8125
85.2,8558.4375,10564.3125
85.22,8558.375,10564.0625
85.24,8558.25,10563.5
85.26,8558.3125,10563.6875
85.28,8557.6875,10563.4375
85.3,8557.9375,10563.625
85.32000000000001,8557.5625,10562.8125
85.34,8557.75,10563.1875
85.36,8558.0,10563.5625
85.38,8557.9375,10563.25
85.4,8557.1875,10562.5625
85.42,8556.6875,10562.0
85.44,8556.5,10561.3125
85.46000000000001,8555.6875,10559.8125
85.48,8555.3125,10558.375
85.5,8554.625,10556.75
85.52,8554.0,10555.0
85.54,8553.3125,10553.375
85.56,8552.5625,10551.875
85.58,8552.375,10550.4375
85.60000000000001,8551.5625,10549.125
85.62,8551.3125,10548.4375
85.64,8551.375,10547.9375
85.66,8550.875,10546.8125
85.68,8549.9375,10545.8125
85.7,8549.8125,10544.5
85.72,8549.1875,10543.9375
85.74,8549.0625,10542.8125
85.76,8548.8125,10542.1875
85.78,8548.1875,10541.375
85.8,8548.0625,10540.9375
85.82000000000001,8547.9375,10539.875
85.84,8547.8125,10539.75
85.86,8547.1875,10539.375
85.88,8547.5,10539.25
85.9,8547.375,10539.75
85.92,8547.6875,10539.75
85.94,8546.875,10538.9375
85.96000000000001,8547.0,10538.25
85.98,8547.125,10538.25
86.0,8547.1875,10538.4375
86.02,8546.8125,10537.75
86.04,8546.6875,10538.1875
86.06,8546.875,10538.0625
86.08,8546.8125,10538.125
86.10000000000001,8546.5,10537.875
86.12,8546.25,10537.4375
86.14,8546.4375,10537.8125
86.16,8546.125,10537.625
86.18,8546.125,10537.25
86.2,8546.0,10537.375
86.22,8546.4375,10537.9375
86.24,8546.625,10538.6875
86.26,8546.875,10539.0
86.28,8546.5,10538.75
86.3,8546.5625,10538.875
86.32000000000001,8546.6875,10538.625
86.34,8546.375,10537.6875
86.36,8546.25,10536.9375
86.38,8546.1875,10536.1875
86.4,8546.5,10535.625
86.42,8546.8125,10535.4375
86.44,8546.3125,10535.125
86.46000000000001,8546.5625,10535.0
86.48,8547.4375,10535.75
86.5,8548.0,10536.875
86.52,8548.375,10537.625
86.54,8548.9375,10538.3125
86.56,8549.3125,10539.0
86.58,8550.0,10539.75
86.60000000000001,8550.9375,10541.125
86.62,8552.0625,10542.5
86.64,8552.875,10543.8125
86.66,8553.5625,10544.9375
86.68,8554.0,10546.75
86.7,8554.6875,10546.5625
86.72,8555.3125,10547.6875
86.74,8555.5,10548.5625
86.76,8556.375,10549.875
86.78,8557.1875,10550.9375
86.8,8557.6875,10552.0
86.82000000000001,8558.0,10552.875
86.84,8558.5625,10553.5
86.86,8558.9375,10554.4375
86.88,8559.8125,10555.75
86.9,8560.375,10556.75
86.92,8560.625,10557.125
86.94,8561.375,10557.8125
86.96000000000001,8561.5625,10558.5625
86.98,8562.3125,10559.25
87.0,8562.6875,10560.375
87.02,8563.0625,10561.4375
87.04,8563.9375,10562.4375
87.06,8564.0625,10563.0
87.08,8564.625,10563.4375
87.10000000000001,8565.5,10565.1875
87.12,8566.375,10566.0625
87.14,8566.25,10566.25
87.16,8566.375,10566.625
87.18,8566.1875,10567.0625
87.2,8567.0625,10567.0
87.22,8566.75,10566.5625
87.24,8567.0,10565.75
87.26,8566.625,10565.1875
87.28,8566.9375,10564.3125
87.3,8566.9375,10563.125
87.32000000000001,8566.25,10562.8125
87.34,8566.5625,10562.0
87.36,8566.75,10562.5
87.38,8566.8125,10562.4375
87.4,8566.6875,10562.125
87.42,8566.8125,10562.4375
87.44,8567.1875,10562.625
87.46000000000001,8567.5,10562.8125
87.48,8567.6875,10562.75
87.5,8568.0,10563.0625
87.52,8568.5,10563.4375
87.54,8568.875,10564.3125
87.56,8568.75,10563.875
87.58,8569.0625,10564.4375
87.60000000000001,8569.1875,10564.6875
87.62,8569.375,10564.9375
87.64,8569.75,10565.3125
87.66,8569.3125,10565.875
87.68,8569.75,10566.3125
87.7,8569.5,10566.25
87.72,8569.5625,10566.6875
87.74,8569.1875,10566.375
87.76,8569.4375,10566.875
87.78,8569.0,10566.9375
87.8,8569.5,10568.0
87.82000000000001,8569.25,10567.6875
87.84,8568.9375,10567.8125
87.86,8569.3125,10568.3125
87.88,8569.4375,10568.625
87.9,8569.125,10568.5625
87.92,8569.0,10569.25
87.94,8569.5,10570.25
87.96000000000001,8569.5,10570.8125
87.98,8568.625,10570.125
88.0,8568.625,10569.875
88.02,8568.75,10570.25
88.04,8568.625,10569.75
88.06,8568.1875,10568.4375
88.08,8567.3125,10567.1875
88.10000000000001,8566.875,10565.75
88.12,8566.5625,10564.875
88.14,8566.3125,10563.9375
88.16,8565.9375,10562.4375
88.18,8565.1875,10561.625
88.2,8564.8125,10561.4375
88.22,8564.8125,10561.0625
88.24,8564.4375,10560.6875
88.26,8563.5,10559.5
88.28,8563.1875,10559.25
88.3,8563.25,10558.875
88.32000000000001,8563.3125,10558.75
88.34,8562.5625,10558.25
88.36,8562.625,10558.3125
88.38,8562.5625,10558.3125
88.4,8562.0,10558.0
88.42,8561.875,10558.5
88.44,8562.5625,10559.0
88.46000000000001,8562.375,10558.9375
88.48,8562.4375,10559.5
88.5,8562.25,10559.6875
88.52,8562.4375,10559.75
88.54,8562.375,10560.4375
88.56,8562.6875,10560.9375
88.58,8562.8125,10561.375
88.60000000000001,8562.75,10561.5
88.62,8562.9375,10562.1875
88.64,8563.1875,10562.625
88.66,8563.0,10562.8125
88.68,8563.3125,10563.375
88.7,8563.25,10564.0625
88.72,8563.5625,10563.9375
88.74,8562.75,10563.8125
88.76,8563.125,10564.0
88.78,8563.625,10565.0625
88.8,8563.625,10565.375
88.82000000000001,8563.875,10566.0625
88.84,8563.5,10565.75
88.86,8563.3125,10565.375
88.88,8562.9375,10564.5625
88.9,8562.5,10563.4375
88.92,8562.125,10562.75
88.94,8561.8125,10561.25
88.96000000000001,8561.0625,10560.0625
88.98,8560.75,10558.875
89.0,8560.25,10557.5625
89.02,8559.625,10556.5625
89.04,8558.8125,10555.0
89.06,8559.0,10554.875
89.08,8558.6875,10554.0625
89.10000000000001,8557.9375,10553.625
89.12,8557.75,10552.625
89.14,8557.375,10552.125
89.16,8556.6875,10551.875
89.18,8557.0,10551.25
89.2,8556.25,10550.8125
89.22,8556.1875,10550.5625
89.24,8555.875,10549.875
89.26,8555.4375,10549.25
89.28,8555.5,10549.1875
89.3,8555.5,10549.8125
89.32000000000001,8555.25,10550.3125
89.34,8556.0625,10551.1875
89.36,8557.3125,10552.6875
89.38,8557.8125,10553.8125
89.4,8558.3125,10554.375
89.42,8558.75,10554.8125
89.44,8559.0,10555.25
89.46000000000001,8558.75,10554.75
89.48,8558.875,10554.8125
89.5,8559.125,10554.5
89.52,8559.5,10554.5625
89.54,8560.25,10555.25
89.56,8560.25,10555.75
89.58,8560.3125,10555.625
89.60000000000001,8560.5,10556.3125
89.62,8561.0,10556.8125
89.64,8561.375,10556.9375
89.66,8561.8125,10557.6875
89.68,8562.25,10559.0
89.7,8562.875,10559.625
89.72,8562.625,10559.8125
89.74,8562.625,10559.25
89.76,8562.8125,10559.4375
89.78,8563.125,10559.3125
89.8,8563.125,10559.0625
89.82000000000001,8562.875,10558.0625
89.84,8562.875,10556.9375
89.86,8562.25,10556.125
89.88,8562.6875,10556.125
89.9,8563.125,10555.9375
89.92,8563.0,10555.75
89.94,8563.375,10556.125
89.96000000000001,8563.3125,10555.875
89.98,8563.3125,10555.75
90.0,8563.25,10555.125
90.02,8562.875,10554.3125
90.04,8562.625,10553.5
