0.0,7449.3125,9827.25
0.02,7449.3125,9827.4375
0.04,7449.625,9826.9375
0.06,7449.375,9827.5625
0.08,7449.5625,9828.0625
0.1,7449.9375,9829.0
0.12,7450.25,9829.6875
0.14,7450.375,9830.5625
0.16,7450.5625,9831.3125
0.18,7450.75,9831.4375
0.2,7450.75,9831.5
0.22,7450.875,9831.375
0.24,7450.375,9831.625
0.26,7450.5625,9831.625
0.28,7450.6875,9831.75
0.3,7451.0625,9831.4375
0.32,7450.9375,9831.75
0.34,7451.1875,9831.875
0.36,7451.1875,9832.25
0.38,7451.375,9832.6875
0.4,7451.375,9832.3125
0.42,7451.375,9832.9375
0.44,7451.5625,9832.6875
0.46,7451.25,9832.75
0.48,7451.375,9832.75
0.5,7451.75,9833.4375
0.52,7451.375,9833.5
0.54,7452.0,9833.75
0.56,7451.625,9834.3125
0.58,7452.0,9834.5
0.6,7451.8125,9834.5625
0.62,7451.9375,9834.625
0.64,7451.625,9834.75
0.66,7451.9375,9835.3125
0.68,7451.9375,9835.625
0.7000000000000001,7452.25,9835.8125
0.72,7452.0,9835.25
0.74,7452.125,9836.0
0.76,7451.875,9836.125
0.78,7452.25,9836.1875
0.8,7452.1875,9836.6875
0.8200000000000001,7452.3125,9837.125
0.84,7452.25,9837.4375
0.86,7452.25,9837.8125
0.88,7452.1875,9838.125
0.9,7452.4375,9838.375
0.92,7452.25,9839.0
0.9400000000000001,7452.5,9839.0
0.96,7452.375,9839.375
0.98,7452.375,9839.1875
1.0,7452.8125,9839.5625
1.02,7452.125,9838.875
1.04,7452.1875,9838.375
1.06,7452.25,9838.375
1.08,7451.8125,9838.4375
1.1,7452.0625,9838.375
1.12,7451.75,9838.125
1.1400000000000001,7451.875,9838.3125
1.16,7451.9375,9837.625
1.18,7451.8125,9838.25
1.2,7451.6875,9837.75
1.22,7451.5625,9837.9375
1.24,7451.5,9838.3125
1.26,7451.6875,9838.5625
1.28,7451.75,9838.375
1.3,7451.4375,9838.8125
1.32,7450.8125,9838.0625
1.34,7451.3125,9838.375
1.36,7451.375,9838.3125
1.3800000000000001,7451.1875,9838.25
1.4000000000000001,7451.125,9838.6875
1.42,7451.3125,9838.875
1.44,7451.4375,9838.875
1.46,7451.3125,9838.8125
1.48,7450.875,9838.75
1.5,7450.625,9838.625
1.52,7450.5,9838.5625
1.54,7450.875,9839.0625
1.56,7450.75,9839.1875
1.58,7451.0625,9839.375
1.6,7451.0,9839.3125
1.62,7450.9375,9839.5
1.6400000000000001,7450.4375,9839.625
1.6600000000000001,7450.875,9839.75
1.68,7451.0625,9840.0
1.7,7450.9375,9840.0
1.72,7450.625,9840.0625
1.74,7450.6875,9840.0625
1.76,7450.5,9840.625
1.78,7450.75,9840.5
1.8,7450.5625,9840.5625
1.82,7450.8125,9841.0625
1.84,7450.5625,9840.4375
1.86,7450.25,9840.0
1.8800000000000001,7450.1875,9839.5
1.9000000000000001,7450.0625,9839.1875
1.92,7449.625,9838.6875
1.94,7449.375,9838.5625
1.96,7449.75,9838.625
1.98,7449.625,9837.6875
2.0,7449.375,9837.6875
2.02,7448.875,9836.625
2.04,7448.875,9836.375
2.06,7448.75,9836.5
2.08,7448.8125,9836.0625
2.1,7448.4375,9836.0
2.12,7448.0,9835.6875
2.14,7447.9375,9835.625
2.16,7447.875,9835.375
2.18,7447.875,9835.3125
2.2,7447.8125,9835.0625
2.22,7447.75,9835.0625
2.24,7447.6875,9835.125
2.2600000000000002,7447.6875,9834.9375
2.2800000000000002,7447.4375,9834.5
2.3000000000000003,7447.375,9835.0625
2.32,7447.375,9834.625
2.34,7446.625,9834.625
2.36,7447.125,9834.5
2.38,7446.8125,9834.0625
2.4,7446.6875,9834.3125
2.42,7446.6875,9833.9375
2.44,7446.4375,9834.125
2.46,7446.3125,9833.875
2.48,7446.0625,9833.5625
2.5,7446.0,9833.5625
2.52,7445.8125,9833.5625
2.54,7446.125,9833.3125
2.56,7445.625,9833.0
2.58,7445.6875,9833.875
2.6,7446.0625,9834.1875
2.62,7446.25,9834.375
2.64,7445.875,9833.5625
2.66,7445.25,9833.0
2.68,7444.5625,9832.625
2.7,7443.9375,9832.1875
2.72,7444.0,9833.9375
2.74,7443.875,9835.1875
2.7600000000000002,7444.25,9836.3125
2.7800000000000002,7444.0625,9836.1875
2.8000000000000003,7443.3125,9835.0625
2.82,7442.375,9833.8125
2.84,7441.4375,9832.375
2.86,7440.625,9831.625
2.88,7440.25,9830.6875
2.9,7439.9375,9830.0
2.92,7439.4375,9829.25
2.94,7439.125,9828.5625
2.96,7438.9375,9828.125
2.98,7438.6875,9827.875
3.0,7438.9375,9827.25
3.02,7438.3125,9826.4375
3.04,7438.0,9825.6875
3.06,7437.5625,9824.8125
3.08,7437.8125,9824.3125
3.1,7437.5,9824.125
3.12,7437.3125,9824.6875
3.14,7437.6875,9824.875
3.16,7438.1875,9825.5625
3.18,7437.625,9825.0
3.2,7437.8125,9824.4375
3.22,7437.375,9823.625
3.24,7437.375,9824.125
3.2600000000000002,7437.75,9824.3125
3.2800000000000002,7437.5625,9824.625
3.3000000000000003,7437.875,9824.6875
3.3200000000000003,7437.625,9825.125
3.34,7437.375,9825.1875
3.36,7437.5,9824.9375
3.38,7437.6875,9824.8125
3.4,7437.75,9824.75
3.42,7437.4375,9824.5625
3.44,7437.4375,9824.25
3.46,7437.4375,9824.375
3.48,7437.5625,9824.375
3.5,7437.125,9823.875
3.52,7436.6875,9823.6875
3.54,7436.875,9823.6875
3.56,7436.875,9823.625
3.58,7436.875,9823.375
3.6,7437.0,9823.375
3.62,7437.25,9823.9375
3.64,7437.5625,9824.0625
3.66,7437.9375,9824.875
3.68,7437.625,9825.0
3.7,7437.6875,9824.4375
3.72,7437.25,9823.8125
3.74,7437.25,9823.5625
3.7600000000000002,7437.5,9823.9375
3.7800000000000002,7437.8125,9823.4375
3.8000000000000003,7437.4375,9823.375
3.8200000000000003,7437.375,9823.0
3.84,7437.875,9822.875
3.86,7438.0625,9823.8125
3.88,7438.5625,9824.25
3.9,7438.75,9824.25
3.92,7437.875,9823.9375
3.94,7438.5,9823.875
3.96,7438.5,9824.1875
3.98,7438.3125,9823.875
4.0,7437.5625,9823.5
4.0200000000000005,7436.9375,9822.375
4.04,7435.8125,9821.125
4.0600000000000005,7435.4375,9820.0625
4.08,7435.25,9819.625
4.1,7434.625,9819.25
4.12,7434.3125,9818.5
4.14,7434.1875,9818.4375
4.16,7434.25,9818.375
4.18,7434.1875,9817.9375
4.2,7434.375,9817.9375
4.22,7434.0625,9817.3125
4.24,7433.75,9817.125
4.26,7433.5,9816.625
4.28,7433.25,9816.0
4.3,7433.1875,9815.75
4.32,7433.25,9815.6875
4.34,7433.3125,9815.875
4.36,7432.875,9815.875
4.38,7433.1875,9815.875
4.4,7433.125,9815.5
4.42,7432.9375,9816.0
4.44,7433.4375,9816.625
4.46,7433.625,9817.75
4.48,7434.1875,9818.75
4.5,7434.125,9818.8125
4.5200000000000005,7434.375,9819.125
4.54,7434.5,9818.6875
4.5600000000000005,7434.375,9817.9375
4.58,7434.375,9817.3125
4.6000000000000005,7434.0625,9817.0625
4.62,7434.4375,9817.375
4.64,7434.5,9817.3125
4.66,7434.375,9817.8125
4.68,7434.5,9818.1875
4.7,7434.125,9818.125
4.72,7434.0,9817.625
4.74,7434.1875,9817.625
4.76,7433.875,9817.0625
4.78,7434.0625,9817.5625
4.8,7434.25,9818.1875
4.82,7434.25,9818.4375
4.84,7434.1875,9818.5625
4.86,7434.5,9818.75
4.88,7434.75,9819.375
4.9,7434.9375,9819.625
4.92,7434.875,9819.75
4.94,7435.125,9820.375
4.96,7435.3125,9820.3125
4.98,7435.3125,9820.4375
5.0,7435.3125,9820.5625
5.0200000000000005,7435.0,9821.1875
5.04,7435.5,9821.5625
5.0600000000000005,7435.75,9821.6875
5.08,7436.125,9822.1875
5.1000000000000005,7436.0,9822.75
5.12,7436.25,9823.4375
5.14,7436.375,9823.5625
5.16,7436.625,9824.0625
5.18,7436.625,9824.375
5.2,7436.875,9825.0625
5.22,7436.8125,9825.1875
5.24,7437.5625,9825.6875
5.26,7437.375,9826.375
5.28,7437.6875,9827.125
5.3,7438.0,9827.625
5.32,7438.375,9828.125
5.34,7438.625,9828.4375
5.36,7438.625,9828.5
5.38,7438.5625,9829.5625
5.4,7439.1875,9829.75
5.42,7439.0,9829.875
5.44,7439.0625,9830.0
5.46,7439.5,9830.125
5.48,7439.125,9829.75
5.5,7439.0625,9829.5
5.5200000000000005,7439.5,9829.5625
5.54,7439.4375,9829.6875
5.5600000000000005,7439.375,9829.4375
5.58,7439.375,9829.25
5.6000000000000005,7439.1875,9829.25
5.62,7439.0,9828.75
5.64,7439.1875,9829.0
5.66,7439.375,9829.5625
5.68,7439.4375,9829.5
5.7,7439.5,9829.1875
5.72,7439.8125,9829.6875
5.74,7439.5625,9829.6875
5.76,7440.0625,9829.75
5.78,7439.875,9829.75
5.8,7439.8125,9829.875
5.82,7439.9375,9830.0
5.84,7439.5625,9829.9375
5.86,7440.0625,9830.4375
5.88,7440.0,9830.3125
5.9,7440.1875,9830.5625
5.92,7440.375,9830.75
5.94,7440.4375,9830.8125
5.96,7440.625,9831.25
5.98,7440.8125,9831.625
6.0,7440.75,9831.9375
6.0200000000000005,7441.0625,9831.9375
6.04,7441.0,9831.75
6.0600000000000005,7440.8125,9832.3125
6.08,7441.1875,9832.3125
6.1000000000000005,7441.4375,9832.75
6.12,7441.75,9833.25
6.140000000000001,7441.75,9833.5
6.16,7441.875,9834.0625
6.18,7441.9375,9834.75
6.2,7442.0,9834.5625
6.22,7442.125,9835.0
6.24,7442.6875,9835.375
6.26,7442.5,9835.875
6.28,7442.5,9835.625
6.3,7442.5,9835.25
6.32,7442.125,9835.125
6.34,7442.0,9834.75
6.36,7442.125,9834.75
6.38,7442.1875,9834.75
6.4,7442.3125,9834.6875
6.42,7442.4375,9834.6875
6.44,7442.1875,9834.5
6.46,7442.0625,9834.0625
6.48,7441.6875,9833.875
6.5,7441.625,9833.6875
6.5200000000000005,7441.5625,9833.9375
6.54,7442.0625,9834.0625
6.5600000000000005,7441.9375,9834.5
6.58,7441.75,9834.125
6.6000000000000005,7441.8125,9834.5625
6.62,7441.875,9833.9375
6.640000000000001,7442.125,9834.75
6.66,7442.0,9834.625
6.68,7442.125,9834.75
6.7,7442.1875,9835.0
6.72,7442.1875,9835.25
6.74,7442.0,9835.0625
6.76,7442.0625,9835.25
6.78,7442.1875,9835.9375
6.8,7442.1875,9835.75
6.82,7442.5,9835.8125
6.84,7442.25,9836.125
6.86,7442.4375,9836.625
6.88,7442.5625,9836.875
6.9,7442.8125,9837.3125
6.92,7442.375,9837.125
6.94,7442.6875,9837.4375
6.96,7442.625,9837.9375
6.98,7442.5,9837.625
7.0,7442.8125,9838.0
7.0200000000000005,7442.8125,9838.3125
7.04,7443.5625,9839.0625
7.0600000000000005,7443.625,9839.125
7.08,7443.5,9839.625
7.1000000000000005,7443.3125,9839.8125
7.12,7443.8125,9840.375
7.140000000000001,7444.0,9841.1875
7.16,7444.0,9841.5625
7.18,7444.1875,9841.1875
7.2,7444.0,9840.8125
7.22,7444.25,9840.6875
7.24,7443.875,9840.625
7.26,7444.0625,9840.75
7.28,7443.8125,9839.875
7.3,7443.875,9839.875
7.32,7443.75,9840.0
7.34,7443.5,9839.4375
7.36,7443.25,9838.6875
7.38,7443.25,9838.375
7.4,7443.25,9837.75
7.42,7442.9375,9836.8125
7.44,7442.875,9836.0625
7.46,7442.4375,9834.875
7.48,7442.5625,9835.125
7.5,7442.5,9834.375
7.5200000000000005,7442.375,9834.3125
7.54,7442.1875,9834.8125
7.5600000000000005,7442.0,9834.625
7.58,7442.1875,9834.5625
7.6000000000000005,7442.1875,9834.625
7.62,7442.0,9834.625
7.640000000000001,7441.3125,9834.625
7.66,7441.75,9834.5
7.68,7441.625,9834.375
7.7,7441.6875,9834.5625
7.72,7441.8125,9834.75
7.74,7441.25,9835.125
7.76,7441.0,9834.8125
7.78,7441.0,9834.875
7.8,7441.125,9835.375
7.82,7440.875,9835.8125
7.84,7440.5,9835.75
7.86,7440.5625,9835.875
7.88,7440.3125,9835.9375
7.9,7440.0,9835.875
7.92,7439.875,9835.9375
7.94,7439.875,9836.0
7.96,7439.625,9835.4375
7.98,7440.0,9836.0
8.0,7439.875,9836.1875
8.02,7439.5625,9836.3125
8.040000000000001,7439.4375,9835.8125
8.06,7439.125,9835.375
8.08,7438.5625,9835.5
8.1,7438.3125,9835.8125
8.120000000000001,7438.625,9837.0
8.14,7438.625,9837.75
8.16,7438.9375,9837.875
8.18,7439.25,9839.0
8.2,7439.8125,9839.625
8.22,7440.0625,9840.1875
8.24,7440.25,9840.25
8.26,7440.4375,9839.5625
8.28,7440.25,9839.25
8.3,7439.8125,9838.5
8.32,7439.6875,9838.6875
8.34,7439.875,9838.0625
8.36,7440.0,9838.75
8.38,7440.5625,9839.875
8.4,7440.9375,9841.25
8.42,7441.25,9842.75
8.44,7441.5,9843.0625
8.46,7440.875,9842.5625
8.48,7440.9375,9843.25
8.5,7440.8125,9843.25
8.52,7440.9375,9843.25
8.540000000000001,7440.6875,9843.4375
8.56,7440.8125,9843.4375
8.58,7440.4375,9843.4375
8.6,7440.125,9843.125
8.620000000000001,7439.875,9842.8125
8.64,7440.0,9843.125
8.66,7440.125,9842.4375
8.68,7440.1875,9843.1875
8.700000000000001,7440.625,9843.6875
8.72,7440.9375,9844.6875
8.74,7441.25,9845.6875
8.76,7441.5625,9846.4375
8.78,7442.1875,9847.4375
8.8,7442.5,9848.5
8.82,7443.1875,9849.875
8.84,7443.875,9851.25
8.86,7444.125,9851.9375
8.88,7444.25,9852.6875
8.9,7444.1875,9852.75
8.92,7444.5625,9853.375
8.94,7444.6875,9853.375
8.96,7444.3125,9853.3125
8.98,7444.25,9853.0625
9.0,7444.3125,9853.6875
9.02,7445.0625,9855.125
9.040000000000001,7445.375,9856.0
9.06,7446.0625,9857.125
9.08,7446.3125,9858.125
9.1,7446.4375,9858.5
9.120000000000001,7446.5625,9859.3125
9.14,7447.125,9859.3125
9.16,7447.0,9859.625
9.18,7447.125,9859.6875
9.200000000000001,7447.1875,9859.375
9.22,7447.3125,9859.6875
9.24,7446.875,9859.375
9.26,7446.9375,9859.125
9.28,7447.0625,9858.875
9.3,7447.25,9859.3125
9.32,7447.5,9860.125
9.34,7448.0,9860.125
9.36,7448.1875,9860.5
9.38,7448.75,9861.0625
9.4,7449.3125,9862.0
9.42,7450.0625,9862.8125
9.44,7449.875,9863.25
9.46,7450.3125,9863.75
9.48,7450.9375,9864.5625
9.5,7451.3125,9865.3125
9.52,7451.875,9866.25
9.540000000000001,7452.25,9866.8125
9.56,7452.5625,9867.375
9.58,7452.625,9867.5625
9.6,7452.875,9867.875
9.620000000000001,7452.625,9867.6875
9.64,7452.9375,9867.9375
9.66,7453.0625,9868.125
9.68,7453.375,9868.3125
9.700000000000001,7453.5625,9868.8125
9.72,7454.0625,9869.125
9.74,7454.5,9870.1875
9.76,7454.8125,9870.4375
9.78,7454.8125,9870.9375
9.8,7455.1875,9871.125
9.82,7455.3125,9871.1875
9.84,7455.5625,9871.3125
9.86,7455.9375,9871.75
9.88,7455.8125,9872.4375
9.9,7456.0625,9872.3125
9.92,7455.75,9872.3125
9.94,7455.9375,9872.5625
9.96,7456.25,9872.75
9.98,7456.25,9872.6875
10.0,7456.4375,9873.1875
10.02,7456.6875,9873.9375
10.040000000000001,7456.9375,9874.0625
10.06,7456.375,9873.75
10.08,7456.625,9873.6875
10.1,7456.625,9873.5625
10.120000000000001,7456.75,9874.0
10.14,7456.75,9874.1875
10.16,7456.3125,9873.4375
10.18,7456.3125,9873.5625
10.200000000000001,7456.375,9872.9375
10.22,7456.25,9873.0625
10.24,7455.8125,9873.125
10.26,7455.8125,9873.0625
10.28,7455.625,9873.0625
10.3,7455.1875,9872.5625
10.32,7455.3125,9872.75
10.34,7455.125,9873.0625
10.36,7455.0625,9872.4375
10.38,7454.6875,9872.9375
10.4,7454.4375,9873.1875
10.42,7454.625,9873.375
10.44,7454.5625,9873.625
10.46,7454.9375,9873.5625
10.48,7454.3125,9873.8125
10.5,7454.6875,9874.0
10.52,7454.625,9874.1875
10.540000000000001,7454.625,9874.1875
10.56,7454.6875,9874.5625
10.58,7454.5625,9874.5
10.6,7454.25,9874.5625
10.620000000000001,7454.375,9873.8125
10.64,7454.0625,9873.875
10.66,7453.625,9873.3125
10.68,7453.5,9873.3125
10.700000000000001,7453.875,9873.6875
10.72,7454.1875,9873.6875
10.74,7453.875,9873.0
10.76,7453.625,9872.5625
10.78,7453.4375,9872.75
10.8,7453.4375,9872.5
10.82,7453.1875,9872.375
10.84,7453.0625,9872.375
10.86,7453.0,9872.375
10.88,7452.6875,9872.375
10.9,7452.6875,9872.3125
10.92,7452.4375,9871.625
10.94,7452.3125,9871.5625
10.96,7452.125,9871.75
10.98,7452.0625,9871.75
11.0,7452.25,9871.875
11.02,7452.25,9872.5
11.040000000000001,7452.0625,9871.8125
11.06,7452.0,9872.0
11.08,7452.0625,9872.25
11.1,7452.3125,9872.3125
11.120000000000001,7451.625,9872.375
11.14,7451.625,9872.0
11.16,7451.9375,9872.1875
11.18,7451.8125,9872.375
11.200000000000001,7451.875,9872.1875
11.22,7452.0625,9872.3125
11.24,7452.4375,9872.625
11.26,7452.125,9871.625
11.28,7451.875,9871.3125
11.3,7451.8125,9871.0
11.32,7452.1875,9871.8125
11.34,7452.5625,9872.5
11.36,7452.25,9872.3125
11.38,7451.8125,9871.875
11.4,7451.8125,9871.1875
11.42,7451.5,9870.375
11.44,7451.3125,9869.8125
11.46,7451.375,9870.0625
11.48,7451.0625,9869.9375
11.5,7450.75,9869.3125
11.52,7450.5,9868.625
11.540000000000001,7450.375,9868.5
11.56,7450.375,9868.1875
11.58,7450.0625,9867.9375
11.6,7450.0625,9867.375
11.620000000000001,7450.125,9867.5625
11.64,7449.9375,9867.3125
11.66,7449.8125,9867.125
11.68,7449.875,9867.0625
11.700000000000001,7449.4375,9866.4375
11.72,7449.6875,9866.75
11.74,7449.5625,9867.0625
11.76,7449.9375,9868.25
11.78,7450.5625,9869.4375
11.8,7451.1875,9870.5
11.82,7451.5,9871.6875
11.84,7452.1875,9873.875
11.86,7453.3125,9876.4375
11.88,7453.8125,9878.5625
11.9,7454.25,9881.1875
11.92,7455.5625,9884.3125
11.94,7456.875,9886.6875
11.96,7456.9375,9887.375
11.98,7456.4375,9886.8125
12.0,7455.375,9886.125
12.02,7454.1875,9884.875
12.040000000000001,7453.375,9883.1875
12.06,7451.6875,9881.6875
12.08,7450.25,9880.0625
12.1,7449.25,9878.6875
12.120000000000001,7447.9375,9877.6875
12.14,7447.1875,9877.5
12.16,7446.75,9877.3125
12.18,7446.0625,9877.4375
12.200000000000001,7445.5625,9877.6875
12.22,7445.125,9878.0625
12.24,7444.625,9876.875
12.26,7443.0625,9875.25
12.280000000000001,7441.625,9873.9375
12.3,7440.125,9872.875
12.32,7439.1875,9871.375
12.34,7437.8125,9870.5625
12.36,7436.8125,9869.1875
12.38,7436.0,9868.75
12.4,7435.1875,9867.125
12.42,7434.4375,9865.875
12.44,7433.4375,9864.4375
12.46,7432.0,9863.125
12.48,7431.375,9861.875
12.5,7430.125,9860.5625
12.52,7429.8125,9860.0625
12.540000000000001,7429.4375,9860.0625
12.56,7429.125,9859.9375
12.58,7429.1875,9860.125
12.6,7429.1875,9859.6875
12.620000000000001,7429.0625,9860.375
12.64,7429.125,9860.5625
12.66,7429.0625,9860.9375
12.68,7428.8125,9861.0
12.700000000000001,7428.75,9861.25
12.72,7428.3125,9860.625
12.74,7427.6875,9860.625
12.76,7427.6875,9860.1875
12.780000000000001,7428.125,9861.125
12.8,7427.8125,9861.6875
12.82,7427.8125,9861.5
12.84,7427.375,9861.8125
12.86,7427.375,9861.625
12.88,7427.0,9861.4375
12.9,7427.125,9861.6875
12.92,7426.9375,9861.9375
12.94,7426.9375,9861.8125
12.96,7426.875,9861.75
12.98,7426.8125,9862.125
13.0,7426.6875,9862.5
13.02,7426.5,9862.9375
13.040000000000001,7426.8125,9862.9375
13.06,7426.875,9863.0
13.08,7427.25,9864.0625
13.1,7427.4375,9864.9375
13.120000000000001,7427.625,9865.3125
13.14,7427.75,9865.625
13.16,7428.0625,9866.3125
13.18,7428.5,9867.125
13.200000000000001,7429.25,9868.375
13.22,7429.875,9869.3125
13.24,7431.0,9869.75
13.26,7431.4375,9869.5
13.280000000000001,7431.75,9868.0625
13.3,7431.8125,9865.875
13.32,7431.5,9864.625
13.34,7431.875,9863.375
13.36,7432.1875,9863.0625
13.38,7433.3125,9863.5625
13.4,7434.4375,9864.5625
13.42,7435.5625,9865.0
13.44,7436.375,9865.0625
13.46,7437.375,9865.375
13.48,7438.4375,9866.125
13.5,7440.0625,9867.3125
13.52,7441.1875,9868.0625
13.540000000000001,7441.1875,9867.3125
13.56,7441.125,9866.3125
13.58,7441.6875,9866.0
13.6,7442.8125,9866.0
13.620000000000001,7443.125,9865.5625
13.64,7443.125,9865.25
13.66,7443.3125,9864.625
13.68,7443.25,9863.75
13.700000000000001,7443.9375,9863.8125
13.72,7444.75,9864.6875
13.74,7445.8125,9865.625
13.76,7446.75,9866.4375
13.780000000000001,7447.75,9868.0
13.8,7448.5,9869.1875
13.82,7448.75,9869.9375
13.84,7448.25,9869.8125
13.86,7448.25,9870.0625
13.88,7449.25,9871.875
13.9,7449.75,9874.0625
13.92,7451.1875,9875.6875
13.94,7451.75,9875.75
13.96,7451.75,9875.5
13.98,7451.4375,9874.25
14.0,7451.1875,9872.6875
14.02,7451.0625,9871.8125
14.040000000000001,7451.1875,9871.4375
14.06,7452.375,9872.5
14.08,7453.375,9874.1875
14.1,7454.4375,9876.0625
14.120000000000001,7455.125,9876.875
14.14,7455.375,9877.6875
14.16,7455.1875,9878.0625
14.18,7455.375,9878.375
14.200000000000001,7455.5,9879.1875
14.22,7455.5,9879.5625
14.24,7455.5,9880.0
14.26,7455.5625,9879.875
14.280000000000001,7455.875,9880.6875
14.3,7455.9375,9881.125
14.32,7456.375,9881.5
14.34,7456.6875,9882.4375
14.36,7457.125,9882.6875
14.38,7457.125,9883.8125
14.4,7457.25,9884.4375
14.42,7457.4375,9885.25
14.44,7457.3125,9885.875
14.46,7457.1875,9886.375
14.48,7457.1875,9886.625
14.5,7456.9375,9887.0
14.52,7457.0,9887.0
14.540000000000001,7456.8125,9887.4375
14.56,7456.9375,9887.6875
14.58,7457.0,9889.0625
14.6,7457.25,9889.25
14.620000000000001,7457.0625,9889.1875
14.64,7457.0625,9889.5
14.66,7456.5625,9889.5625
14.68,7456.9375,9890.5
14.700000000000001,7457.25,9890.625
14.72,7457.625,9890.9375
14.74,7457.4375,9891.125
14.76,7457.75,9891.1875
14.780000000000001,7457.5625,9890.9375
14.8,7457.6875,9890.8125
14.82,7457.375,9890.8125
14.84,7457.5,9891.0
14.86,7458.0,9891.0625
14.88,7458.0,9891.6875
14.9,7458.1875,9891.9375
14.92,7457.8125,9891.5
14.94,7458.0,9891.625
14.96,7458.125,9891.9375
14.98,7458.25,9892.25
15.0,7458.6875,9893.125
15.02,7458.75,9893.5
15.040000000000001,7458.8125,9893.9375
15.06,7458.875,9894.125
15.08,7458.75,9894.625
15.1,7459.3125,9894.875
15.120000000000001,7459.625,9895.8125
15.14,7459.75,9896.125
15.16,7459.875,9896.8125
15.18,7460.3125,9897.3125
15.200000000000001,7460.5,9897.375
15.22,7460.9375,9897.875
15.24,7461.3125,9899.5625
15.26,7461.5,9899.875
15.280000000000001,7461.6875,9900.1875
15.3,7462.1875,9900.9375
15.32,7462.6875,9901.25
15.34,7462.6875,9901.75
15.36,7463.5625,9902.5
15.38,7463.5625,9903.0
15.4,7463.875,9903.875
15.42,7464.1875,9904.3125
15.44,7464.6875,9906.0
15.46,7465.1875,9906.375
15.48,7465.25,9906.6875
15.5,7465.375,9906.8125
15.52,7465.8125,9907.125
15.540000000000001,7465.8125,9907.0
15.56,7465.75,9907.5625
15.58,7466.0,9907.4375
15.6,7465.75,9908.0
15.620000000000001,7466.375,9908.125
15.64,7466.1875,9908.375
15.66,7466.8125,9908.4375
15.68,7466.4375,9909.0
15.700000000000001,7466.25,9909.0
15.72,7466.625,9908.9375
15.74,7466.875,9909.4375
15.76,7467.0,9909.5
15.780000000000001,7467.1875,9909.8125
15.8,7467.0625,9910.0625
15.82,7466.9375,9910.6875
15.84,7467.4375,9911.375
15.860000000000001,7467.9375,9911.5625
15.88,7467.8125,9911.6875
15.9,7468.0625,9912.0
15.92,7467.6875,9911.8125
15.94,7468.125,9912.4375
15.96,7468.0,9912.875
15.98,7468.0625,9912.6875
16.0,7468.375,9913.0625
16.02,7468.8125,9913.75
16.04,7468.875,9913.6875
16.06,7468.75,9914.3125
16.080000000000002,7468.75,9914.3125
16.1,7468.875,9914.375
16.12,7469.0625,9915.0625
16.14,7469.3125,9915.875
16.16,7469.875,9916.25
16.18,7469.9375,9916.4375
16.2,7470.0,9916.625
16.22,7470.25,9917.125
16.240000000000002,7470.1875,9917.5625
16.26,7470.25,9918.0625
16.28,7470.75,9919.125
16.3,7470.8125,9919.5625
16.32,7471.0,9919.25
16.34,7470.5625,9919.4375
16.36,7470.5625,9918.875
16.38,7470.8125,9918.9375
16.4,7470.875,9918.875
16.42,7471.25,9919.5
16.44,7471.25,9919.625
16.46,7470.9375,9919.625
16.48,7471.1875,9919.25
16.5,7470.625,9919.0625
16.52,7471.1875,9919.0625
16.54,7470.9375,9919.625
16.56,7470.875,9919.625
16.580000000000002,7471.75,9919.75
16.6,7471.3125,9920.125
16.62,7471.6875,9920.6875
16.64,7471.8125,9921.0625
16.66,7471.3125,9921.625
16.68,7471.5625,9921.25
16.7,7471.375,9921.3125
16.72,7471.375,9921.3125
16.740000000000002,7471.4375,9921.75
16.76,7471.3125,9921.8125
16.78,7471.4375,9922.25
16.8,7471.75,9923.1875
16.82,7471.875,9923.5625
16.84,7472.3125,9923.875
16.86,7472.375,9923.9375
16.88,7472.6875,9924.6875
16.9,7472.8125,9924.9375
16.92,7472.0625,9924.125
16.94,7471.75,9924.4375
16.96,7472.0,9924.9375
16.98,7472.3125,9924.6875
17.0,7472.3125,9924.6875
17.02,7472.125,9924.5625
17.04,7472.4375,9925.625
17.06,7472.5625,9926.0625
17.080000000000002,7472.375,9926.6875
17.1,7472.8125,9927.5625
17.12,7473.3125,9929.0
17.14,7474.125,9930.5625
17.16,7474.1875,9930.4375
17.18,7474.0625,9930.5625
17.2,7473.9375,9930.0625
17.22,7473.5625,9929.0
17.240000000000002,7473.0625,9929.125
17.26,7473.0625,9929.0625
17.28,7473.0625,9929.4375
17.3,7473.375,9929.625
17.32,7473.8125,9930.1875
17.34,7474.0,9931.0625
17.36,7474.5625,9932.125
17.38,7474.5625,9932.375
17.400000000000002,7474.6875,9933.0625
17.42,7474.75,9933.6875
17.44,7475.1875,9934.0
17.46,7475.375,9934.4375
17.48,7475.5,9935.125
17.5,7476.125,9936.375
17.52,7476.125,9937.75
17.54,7476.5,9938.8125
17.56,7476.6875,9939.5625
17.580000000000002,7476.5625,9940.75
17.6,7477.0,9941.5625
17.62,7477.3125,9942.3125
17.64,7477.625,9943.6875
17.66,7478.0625,9944.6875
17.68,7477.8125,9945.875
17.7,7477.625,9946.3125
17.72,7477.125,9946.375
17.740000000000002,7477.375,9946.8125
17.76,7477.4375,9947.0625
17.78,7477.4375,9947.8125
17.8,7478.25,9948.4375
17.82,7478.4375,9949.375
17.84,7478.3125,9949.5625
17.86,7478.1875,9949.3125
17.88,7477.4375,9948.375
17.900000000000002,7477.0625,9948.1875
17.92,7477.125,9947.75
17.94,7477.25,9947.3125
17.96,7477.0625,9947.6875
17.98,7478.1875,9947.6875
18.0,7478.125,9948.25
18.02,7478.75,9948.8125
18.04,7479.0,9949.6875
18.06,7479.3125,9950.4375
18.080000000000002,7479.3125,9950.375
18.1,7478.875,9949.3125
18.12,7478.75,9948.625
18.14,7478.5625,9948.125
18.16,7478.6875,9948.0625
18.18,7478.625,9948.125
18.2,7478.875,9948.6875
18.22,7478.4375,9949.0625
18.240000000000002,7478.375,9948.4375
18.26,7478.1875,9947.875
18.28,7477.9375,9947.1875
18.3,7477.4375,9946.875
18.32,7477.625,9946.75
18.34,7477.9375,9947.125
18.36,7478.0,9947.5625
18.38,7478.0,9948.1875
18.400000000000002,7478.4375,9948.75
18.42,7478.5,9948.75
18.44,7478.25,9949.1875
18.46,7478.75,9949.1875
18.48,7478.75,9949.75
18.5,7478.625,9949.5
18.52,7478.25,9949.0
18.54,7478.6875,9949.375
18.56,7478.5625,9949.4375
18.580000000000002,7478.375,9949.625
18.6,7479.0,9950.125
18.62,7479.375,9950.1875
18.64,7479.5625,9951.25
18.66,7480.125,9951.6875
18.68,7479.875,9952.0
18.7,7480.0,9952.1875
18.72,7480.125,9952.5
18.740000000000002,7480.3125,9952.9375
18.76,7480.5,9953.4375
18.78,7480.6875,9953.25
18.8,7480.1875,9953.0625
18.82,7480.0625,9952.1875
18.84,7479.625,9951.0625
18.86,7479.625,9950.3125
18.88,7479.8125,9950.75
18.900000000000002,7479.5,9950.8125
18.92,7479.9375,9950.625
18.94,7479.8125,9949.875
18.96,7479.5625,9949.6875
18.98,7479.1875,9949.1875
19.0,7479.4375,9949.125
19.02,7479.25,9948.5
19.04,7479.3125,9949.0
19.06,7479.6875,9949.4375
19.080000000000002,7479.6875,9949.25
19.1,7479.75,9949.0625
19.12,7479.625,9949.25
19.14,7479.9375,9949.125
19.16,7480.1875,9949.5
19.18,7480.0625,9949.375
19.2,7479.875,9949.375
19.22,7480.125,9949.5625
19.240000000000002,7480.5625,9949.8125
19.26,7480.3125,9949.6875
19.28,7480.375,9950.0
19.3,7480.1875,9950.1875
19.32,7480.8125,9950.5625
19.34,7480.9375,9950.375
19.36,7480.75,9950.6875
19.38,7481.0625,9951.25
19.400000000000002,7481.25,9951.625
19.42,7481.375,9952.0
19.44,7481.3125,9951.875
19.46,7481.6875,9952.0
19.48,7481.875,9952.0625
19.5,7481.75,9952.8125
19.52,7482.3125,9953.1875
19.54,7482.0,9952.9375
19.56,7482.125,9953.125
19.580000000000002,7482.25,9953.5625
19.6,7482.25,9953.875
19.62,7482.5,9954.6875
19.64,7483.0625,9955.125
19.66,7482.9375,9954.6875
19.68,7483.125,9954.75
19.7,7482.6875,9954.125
19.72,7482.5625,9953.4375
19.740000000000002,7482.375,9952.8125
19.76,7482.1875,9952.0625
19.78,7482.0,9951.4375
19.8,7481.75,9951.375
19.82,7482.0625,9950.6875
19.84,7481.9375,9950.625
19.86,7482.0625,9950.125
19.88,7481.6875,9949.375
19.900000000000002,7481.25,9949.0625
19.92,7481.375,9949.0625
19.94,7481.25,9949.0
19.96,7481.5,9948.9375
19.98,7481.0625,9948.875
20.0,7481.25,9948.75
20.02,7481.5,9948.75
20.04,7481.4375,9948.6875
20.06,7481.4375,9948.5
20.080000000000002,7481.625,9948.6875
20.1,7481.3125,9948.75
20.12,7481.8125,9948.875
20.14,7481.9375,9948.6875
20.16,7481.6875,9949.0625
20.18,7481.75,9949.5
20.2,7482.125,9949.5625
20.22,7481.9375,9949.25
20.240000000000002,7481.9375,9949.5
20.26,7482.125,9949.75
20.28,7482.1875,9949.8125
20.3,7482.6875,9950.375
20.32,7482.6875,9951.0625
20.34,7483.375,9952.125
20.36,7483.8125,9952.375
20.38,7484.375,9953.9375
20.400000000000002,7484.625,9954.875
20.42,7485.25,9955.6875
20.44,7485.125,9955.625
20.46,7484.875,9956.875
20.48,7485.625,9958.8125
20.5,7486.25,9960.5625
20.52,7487.25,9962.375
20.54,7487.5625,9963.1875
20.56,7487.4375,9963.4375
20.580000000000002,7487.1875,9963.25
20.6,7487.125,9963.0
20.62,7486.375,9963.375
20.64,7486.0625,9963.0625
20.66,7485.5625,9963.125
20.68,7485.0625,9962.125
20.7,7484.375,9960.875
20.72,7483.875,9960.0625
20.740000000000002,7483.125,9959.6875
20.76,7482.5,9958.625
20.78,7481.625,9957.75
20.8,7481.0625,9957.375
20.82,7480.125,9956.3125
20.84,7479.0,9955.375
20.86,7477.6875,9954.125
20.88,7476.375,9952.9375
20.900000000000002,7475.0,9951.25
20.92,7473.3125,9949.1875
20.94,7469.625,9943.5625
20.96,7462.1875,9933.1875
20.98,7458.4375,9930.0625
21.0,7456.375,9927.875
21.02,7455.4375,9926.6875
21.04,7452.9375,9923.625
21.06,7450.125,9920.125
21.080000000000002,7447.3125,9917.8125
21.1,7445.6875,9916.0
21.12,7444.5625,9914.5
21.14,7443.625,9914.0625
21.16,7443.375,9913.8125
21.18,7443.3125,9914.0625
21.2,7443.3125,9914.6875
21.22,7443.125,9914.6875
21.240000000000002,7443.3125,9915.5
21.26,7443.375,9916.25
21.28,7444.1875,9917.4375
21.3,7444.375,9918.4375
21.32,7445.0,9919.4375
21.34,7445.3125,9920.0625
21.36,7445.125,9920.875
21.38,7445.25,9921.0
21.400000000000002,7445.375,9921.625
21.42,7445.3125,9921.875
21.44,7445.375,9922.125
21.46,7445.0,9922.5
21.48,7445.5,9923.0
21.5,7445.125,9923.5625
21.52,7445.5,9923.875
21.54,7445.0,9923.75
21.56,7445.3125,9924.125
21.580000000000002,7444.9375,9924.4375
21.6,7444.875,9924.625
21.62,7444.625,9924.5
21.64,7444.6875,9925.1875
21.66,7444.75,9925.75
21.68,7444.8125,9925.3125
21.7,7444.5625,9925.5
21.72,7444.625,9925.1875
21.740000000000002,7444.875,9924.875
21.76,7444.5625,9924.6875
21.78,7444.25,9924.375
21.8,7444.5625,9924.1875
21.82,7444.4375,9924.125
21.84,7444.125,9923.875
21.86,7444.0,9923.75
21.88,7443.875,9922.9375
21.900000000000002,7443.875,9923.25
21.92,7444.5625,9923.6875
21.94,7444.625,9924.375
21.96,7445.0625,9924.75
21.98,7445.375,9925.0
22.0,7445.4375,9925.1875
22.02,7445.5625,9925.375
22.04,7445.8125,9926.3125
22.06,7446.3125,9926.8125
22.080000000000002,7446.6875,9927.25
22.1,7446.875,9927.875
22.12,7447.0625,9928.0625
22.14,7447.5,9929.125
22.16,7447.9375,9929.75
22.18,7448.0625,9930.6875
22.2,7449.0625,9931.8125
22.22,7449.125,9932.4375
22.240000000000002,7449.9375,9933.1875
22.26,7449.75,9933.375
22.28,7449.8125,9933.75
22.3,7449.75,9933.6875
22.32,7450.1875,9935.125
22.34,7450.1875,9935.0
22.36,7450.3125,9935.25
22.38,7450.6875,9935.875
22.400000000000002,7450.75,9936.4375
22.42,7451.0625,9937.0625
22.44,7451.75,9937.625
22.46,7451.5,9937.75
22.48,7451.125,9937.8125
22.5,7451.0625,9937.625
22.52,7451.125,9938.0
22.54,7451.375,9938.0
22.56,7450.9375,9937.75
22.580000000000002,7450.6875,9937.4375
22.6,7450.5625,9937.25
22.62,7450.3125,9937.4375
22.64,7449.5625,9936.1875
22.66,7449.0,9935.0625
22.68,7448.75,9934.125
22.7,7447.875,9932.75
22.72,7447.25,9932.0625
22.740000000000002,7447.5,9931.875
22.76,7446.75,9931.5625
22.78,7446.5625,9930.875
22.8,7446.25,9930.125
22.82,7445.6875,9929.4375
22.84,7445.375,9928.9375
22.86,7445.1875,9929.1875
22.88,7445.125,9929.0625
22.900000000000002,7445.0,9928.625
22.92,7444.875,9928.25
22.94,7444.875,9928.625
22.96,7444.6875,9928.5625
22.98,7444.8125,9928.25
23.0,7444.5625,9928.75
23.02,7444.75,9928.6875
23.04,7444.6875,9929.125
23.06,7444.9375,9929.5
23.080000000000002,7444.875,9929.4375
23.1,7445.125,9930.125
23.12,7444.875,9929.8125
23.14,7444.875,9930.0625
23.16,7445.1875,9930.25
23.18,7445.375,9931.1875
23.2,7445.5625,9931.625
23.22,7446.0625,9932.875
23.240000000000002,7447.0625,9933.875
23.26,7447.875,9934.8125
23.28,7448.5,9935.875
23.3,7449.0,9936.6875
23.32,7449.5625,9937.0
23.34,7449.625,9937.8125
23.36,7450.1875,9938.5
23.38,7451.1875,9939.8125
23.400000000000002,7452.125,9940.8125
23.42,7453.4375,9942.0
23.44,7454.0,9943.3125
23.46,7455.3125,9944.375
23.48,7455.25,9944.6875
23.5,7455.3125,9945.0
23.52,7455.375,9944.8125
23.54,7455.375,9944.6875
23.56,7455.3125,9944.75
23.580000000000002,7455.625,9944.625
23.6,7455.5625,9944.125
23.62,7456.0,9944.5625
23.64,7455.8125,9944.5625
23.66,7455.6875,9944.125
23.68,7455.0625,9942.75
23.7,7454.3125,9941.625
23.72,7453.875,9940.3125
23.740000000000002,7452.9375,9939.5625
23.76,7453.4375,9939.875
23.78,7453.3125,9940.1875
23.8,7452.75,9939.9375
23.82,7453.375,9940.8125
23.84,7454.3125,9942.25
23.86,7454.75,9943.1875
23.88,7455.25,9944.3125
23.900000000000002,7455.5,9944.3125
23.92,7455.375,9944.4375
23.94,7455.75,9945.375
23.96,7455.8125,9946.25
23.98,7456.25,9946.625
24.0,7456.6875,9947.625
24.02,7456.75,9948.1875
24.04,7457.6875,9948.875
24.060000000000002,7457.625,9949.4375
24.080000000000002,7457.5625,9949.4375
24.1,7457.6875,9949.75
24.12,7457.5,9950.1875
24.14,7457.625,9950.5625
24.16,7457.6875,9950.75
24.18,7458.3125,9952.0625
24.2,7458.3125,9952.375
24.22,7457.875,9952.1875
24.240000000000002,7457.75,9952.6875
24.26,7458.3125,9953.5
24.28,7458.0,9953.125
24.3,7457.9375,9953.625
24.32,7458.0,9954.0
24.34,7458.3125,9954.0625
24.36,7458.1875,9954.5625
24.38,7458.1875,9955.0
24.400000000000002,7458.5625,9954.625
24.42,7458.6875,9955.0625
24.44,7458.5625,9954.5
24.46,7458.375,9954.25
24.48,7458.875,9955.1875
24.5,7459.25,9954.9375
24.52,7459.5625,9954.875
24.54,7459.875,9955.25
24.560000000000002,7459.9375,9955.1875
24.580000000000002,7460.125,9954.875
24.6,7460.125,9954.9375
24.62,7460.375,9955.1875
24.64,7460.8125,9956.0
24.66,7460.8125,9956.25
24.68,7461.1875,9956.75
24.7,7461.8125,9957.25
24.72,7462.125,9957.6875
24.740000000000002,7462.1875,9957.8125
24.76,7462.25,9958.4375
24.78,7462.6875,9959.125
24.8,7463.625,9960.25
24.82,7463.375,9961.3125
24.84,7464.9375,9962.5
24.86,7465.125,9963.5
24.88,7465.875,9964.5625
24.900000000000002,7466.0625,9965.25
24.92,7466.375,9966.0
24.94,7466.375,9966.625
24.96,7466.8125,9966.9375
24.98,7466.75,9967.625
25.0,7467.125,9967.8125
25.02,7467.25,9968.8125
25.04,7467.9375,9969.625
25.060000000000002,7468.0,9970.0625
25.080000000000002,7468.25,9971.25
25.1,7467.8125,9971.1875
25.12,7467.9375,9971.625
25.14,7467.9375,9971.3125
25.16,7467.4375,9971.4375
25.18,7467.3125,9971.8125
25.2,7467.4375,9972.0625
25.22,7467.5,9971.875
25.240000000000002,7467.3125,9971.6875
25.26,7466.4375,9970.875
25.28,7466.625,9970.3125
25.3,7466.0625,9969.875
25.32,7465.75,9969.4375
25.34,7465.5625,9968.8125
25.36,7465.375,9968.625
25.38,7465.375,9967.8125
25.400000000000002,7464.5,9967.125
25.42,7464.3125,9966.6875
25.44,7463.625,9966.375
25.46,7463.25,9965.25
25.48,7462.5625,9964.6875
25.5,7462.1875,9964.5
25.52,7461.75,9963.875
25.54,7461.5625,9963.5
25.560000000000002,7461.25,9963.0
25.580000000000002,7460.625,9962.75
25.6,7460.6875,9963.1875
25.62,7460.375,9962.9375
25.64,7459.875,9962.375
25.66,7459.25,9961.9375
25.68,7458.625,9961.0625
25.7,7457.9375,9961.0
25.72,7457.5625,9959.8125
25.740000000000002,7457.125,9959.6875
25.76,7457.0625,9960.125
25.78,7457.1875,9960.4375
25.8,7457.4375,9960.5625
25.82,7457.125,9961.0
25.84,7457.3125,9961.3125
25.86,7457.25,9961.3125
25.88,7457.3125,9962.3125
25.900000000000002,7457.8125,9962.625
25.92,7458.25,9963.75
25.94,7458.5,9964.6875
25.96,7459.25,9965.5625
25.98,7459.625,9966.1875
26.0,7459.625,9966.9375
26.02,7459.875,9967.625
26.04,7460.375,9968.0
26.060000000000002,7460.375,9968.3125
26.080000000000002,7460.875,9968.625
26.1,7461.25,9969.6875
26.12,7461.9375,9970.5625
26.14,7462.8125,9971.625
26.16,7462.75,9971.875
26.18,7463.5625,9972.25
26.2,7463.5,9972.75
26.22,7463.5,9972.3125
26.240000000000002,7463.75,9972.3125
26.26,7463.9375,9972.1875
26.28,7464.1875,9972.5625
26.3,7464.5,9972.6875
26.32,7464.9375,9973.0
26.34,7464.75,9972.9375
26.36,7464.875,9973.3125
26.38,7465.375,9973.9375
26.400000000000002,7465.75,9974.9375
26.42,7466.875,9976.25
26.44,7467.3125,9977.25
26.46,7467.9375,9977.9375
26.48,7468.0625,9978.8125
26.5,7468.0625,9978.5625
26.52,7468.0,9978.5625
26.54,7468.0625,9979.25
26.560000000000002,7468.4375,9979.75
26.580000000000002,7468.625,9979.75
26.6,7468.6875,9980.5
26.62,7468.5,9980.625
26.64,7468.875,9981.1875
26.66,7469.3125,9982.1875
26.68,7469.4375,9982.375
26.7,7469.6875,9983.0
26.72,7469.875,9983.125
26.740000000000002,7469.9375,9983.75
26.76,7470.1875,9984.75
26.78,7470.4375,9985.375
26.8,7470.4375,9985.5
26.82,7470.375,9985.75
26.84,7470.625,9986.25
26.86,7471.25,9986.9375
26.88,7471.125,9988.0625
26.900000000000002,7471.6875,9988.5625
26.92,7471.9375,9988.875
26.94,7472.3125,9989.5625
26.96,7472.625,9990.5
26.98,7473.0625,9991.125
27.0,7473.5,9991.875
27.02,7474.0,9993.0625
27.04,7474.4375,9993.625
27.060000000000002,7474.6875,9993.6875
27.080000000000002,7474.5625,9993.4375
27.1,7474.75,9993.4375
27.12,7474.3125,9993.5625
27.14,7474.75,9993.0625
27.16,7474.6875,9993.5
27.18,7474.5625,9993.6875
27.2,7474.875,9993.375
27.22,7475.125,9993.75
27.240000000000002,7474.875,9993.4375
27.26,7474.625,9993.5
27.28,7474.875,9993.375
27.3,7474.9375,9993.6875
27.32,7475.125,9994.3125
27.34,7474.9375,9994.3125
27.36,7475.25,9994.5
27.38,7475.4375,9994.625
27.400000000000002,7475.1875,9994.875
27.42,7475.75,9995.1875
27.44,7476.0,9995.875
27.46,7476.0625,9995.9375
27.48,7476.0625,9996.5625
27.5,7476.0,9996.3125
27.52,7476.375,9996.9375
27.54,7476.125,9997.1875
27.560000000000002,7476.375,9997.0
27.580000000000002,7476.75,9997.8125
27.6,7476.6875,9998.0
27.62,7477.0625,9998.625
27.64,7477.0,9999.125
27.66,7477.3125,9999.3125
27.68,7477.375,9999.5
27.7,7477.3125,9999.875
27.72,7477.3125,10000.3125
27.740000000000002,7477.5,10000.6875
27.76,7477.625,10000.75
27.78,7477.8125,10001.0625
27.8,7477.875,10001.875
27.82,7478.0625,10002.125
27.84,7478.25,10003.0625
27.86,7478.1875,10002.5625
27.88,7478.125,10003.125
27.900000000000002,7478.6875,10003.5625
27.92,7478.5,10003.6875
27.94,7478.6875,10004.0
27.96,7478.1875,10004.3125
27.98,7478.75,10004.375
28.0,7478.75,10004.75
28.02,7479.125,10004.8125
28.04,7479.25,10004.6875
28.060000000000002,7479.8125,10005.4375
28.080000000000002,7480.3125,10005.8125
28.1,7480.6875,10006.75
28.12,7481.1875,10007.25
28.14,7481.75,10007.6875
28.16,7482.6875,10008.1875
28.18,7483.4375,10009.1875
28.2,7484.625,10010.0
28.22,7485.5,10011.3125
28.240000000000002,7487.25,10012.6875
28.26,7488.5625,10013.6875
28.28,7489.75,10015.0
28.3,7491.625,10016.0625
28.32,7493.25,10017.0
28.34,7495.0,10017.5
28.36,7497.1875,10018.125
28.38,7499.3125,10019.25
28.400000000000002,7501.125,10019.8125
28.42,7502.5625,10021.8125
28.44,7504.5,10023.1875
28.46,7505.5,10024.0625
28.48,7506.625,10025.6875
28.5,7507.4375,10027.3125
28.52,7507.875,10028.75
28.54,7508.8125,10029.3125
28.560000000000002,7509.3125,10031.0
28.580000000000002,7511.0,10032.0625
28.6,7512.25,10033.25
28.62,7514.0,10034.6875
28.64,7515.625,10036.0625
28.66,7517.75,10038.6875
28.68,7520.0625,10041.1875
28.7,7522.5,10044.3125
28.72,7525.3125,10047.6875
28.740000000000002,7527.625,10050.9375
28.76,7529.1875,10053.875
28.78,7531.3125,10056.8125
28.8,7532.5625,10059.3125
28.82,7533.9375,10061.9375
28.84,7535.5625,10064.125
28.86,7536.25,10066.25
28.88,7537.9375,10069.125
28.900000000000002,7539.4375,10070.5
28.92,7539.6875,10071.8125
28.94,7540.125,10072.625
28.96,7540.5625,10073.625
28.98,7541.4375,10074.875
29.0,7542.625,10076.3125
29.02,7544.0625,10078.1875
29.04,7544.8125,10079.0625
29.060000000000002,7545.3125,10080.3125
29.080000000000002,7546.0,10080.75
29.1,7546.6875,10081.5625
29.12,7547.6875,10083.1875
29.14,7548.6875,10084.6875
29.16,7549.4375,10086.5
29.18,7550.1875,10088.25
29.2,7550.625,10089.6875
29.22,7551.125,10090.5
29.240000000000002,7551.3125,10091.6875
29.26,7551.625,10092.5
29.28,7552.125,10093.8125
29.3,7552.6875,10095.0
29.32,7553.25,10095.9375
29.34,7553.4375,10097.5625
29.36,7553.6875,10098.125
29.38,7554.0,10098.875
29.400000000000002,7554.375,10099.9375
29.42,7554.25,10101.0625
29.44,7555.0,10101.6875
29.46,7555.3125,10102.4375
29.48,7555.625,10103.4375
29.5,7556.0,10104.8125
29.52,7556.5625,10106.0625
29.54,7557.0,10106.4375
29.560000000000002,7557.5,10107.5625
29.580000000000002,7557.625,10108.3125
29.6,7557.6875,10109.3125
29.62,7558.375,10110.25
29.64,7558.6875,10111.0625
29.66,7558.9375,10111.8125
29.68,7559.25,10112.4375
29.7,7559.4375,10113.5625
29.72,7559.5625,10113.5625
29.740000000000002,7559.75,10114.25
29.76,7559.625,10114.25
29.78,7559.875,10114.5625
29.8,7559.9375,10114.6875
29.82,7559.9375,10115.0625
29.84,7560.0625,10114.875
29.86,7559.875,10114.0
29.88,7559.4375,10113.625
29.900000000000002,7559.4375,10113.3125
29.92,7559.75,10113.8125
29.94,7559.9375,10114.375
29.96,7559.875,10114.1875
29.98,7559.9375,10114.0
30.0,7559.375,10113.6875
30.02,7559.3125,10113.6875
30.04,7559.25,10113.75
30.060000000000002,7559.125,10113.75
30.080000000000002,7559.25,10113.6875
30.1,7559.375,10113.6875
30.12,7559.0625,10113.625
30.14,7558.9375,10114.3125
30.16,7559.125,10113.9375
30.18,7559.1875,10114.5625
30.2,7559.375,10114.875
30.22,7559.625,10115.4375
30.240000000000002,7559.75,10115.6875
30.26,7559.875,10115.875
30.28,7559.5625,10116.25
30.3,7559.5,10115.875
30.32,7559.9375,10116.75
30.34,7560.375,10117.4375
30.36,7560.25,10117.4375
30.38,7560.0625,10117.8125
30.400000000000002,7560.75,10118.8125
30.42,7561.5625,10120.4375
30.44,7561.75,10121.875
30.46,7562.375,10122.9375
30.48,7562.375,10123.375
30.5,7561.375,10123.625
30.52,7560.5625,10123.375
30.54,7559.5625,10122.25
30.560000000000002,7558.375,10120.9375
30.580000000000002,7557.5,10120.625
30.6,7555.875,10118.9375
30.62,7554.3125,10117.5
30.64,7553.5,10116.875
30.66,7552.4375,10115.375
30.68,7550.9375,10114.1875
30.7,7550.0,10113.375
30.72,7548.75,10112.1875
30.740000000000002,7547.625,10110.3125
30.76,7546.625,10108.9375
30.78,7545.3125,10107.1875
30.8,7544.5625,10105.625
30.82,7543.3125,10104.8125
30.84,7542.125,10102.75
30.86,7540.625,10100.8125
30.88,7538.75,10098.625
30.900000000000002,7536.625,10095.875
30.92,7535.125,10093.875
30.94,7533.25,10091.0625
30.96,7532.375,10089.4375
30.98,7530.625,10088.0625
31.0,7529.8125,10087.125
31.02,7528.8125,10085.9375
31.04,7527.625,10084.8125
31.060000000000002,7527.0,10084.3125
31.080000000000002,7526.375,10083.625
31.1,7525.9375,10083.75
31.12,7525.4375,10083.4375
31.14,7525.25,10083.6875
31.16,7525.4375,10084.1875
31.18,7525.6875,10084.875
31.2,7526.0,10085.9375
31.220000000000002,7526.625,10087.375
31.240000000000002,7526.9375,10088.25
31.26,7527.875,10089.3125
31.28,7527.875,10089.8125
31.3,7527.875,10090.625
31.32,7527.875,10090.5
31.34,7527.8125,10090.875
31.36,7527.875,10091.1875
31.38,7528.3125,10092.3125
31.400000000000002,7528.375,10092.8125
31.42,7528.6875,10093.375
31.44,7528.875,10093.75
31.46,7528.875,10094.0
31.48,7529.25,10094.5625
31.5,7529.1875,10095.25
31.52,7528.5625,10094.5625
31.54,7528.9375,10094.875
31.560000000000002,7528.625,10095.1875
31.580000000000002,7528.75,10095.0625
31.6,7528.625,10095.9375
31.62,7529.0,10095.875
31.64,7528.4375,10095.1875
31.66,7527.75,10094.375
31.68,7527.4375,10093.6875
31.7,7527.0625,10092.875
31.720000000000002,7526.875,10092.875
31.740000000000002,7526.9375,10092.4375
31.76,7526.625,10092.3125
31.78,7526.125,10091.875
31.8,7525.6875,10091.25
31.82,7525.6875,10090.4375
31.84,7525.4375,10090.5
31.86,7525.125,10090.0
31.88,7525.0,10090.1875
31.900000000000002,7525.3125,10090.4375
31.92,7525.3125,10090.5625
31.94,7525.25,10090.4375
31.96,7524.375,10089.8125
31.98,7523.9375,10089.6875
32.0,7524.0625,10089.125
32.02,7523.5625,10089.4375
32.04,7523.4375,10089.25
32.06,7523.4375,10089.375
32.08,7523.5,10089.5625
32.1,7523.5,10089.75
32.12,7523.5,10090.3125
32.14,7523.1875,10090.125
32.160000000000004,7522.875,10089.8125
32.18,7522.9375,10089.625
32.2,7522.6875,10089.75
32.22,7522.3125,10089.9375
32.24,7522.25,10090.25
32.26,7522.375,10090.25
32.28,7522.5625,10090.6875
32.3,7522.5,10091.0625
32.32,7522.8125,10091.0625
32.34,7522.6875,10091.4375
32.36,7522.375,10091.625
32.38,7522.625,10092.0625
32.4,7522.125,10092.8125
32.42,7522.75,10093.125
32.44,7523.0625,10093.9375
32.46,7523.1875,10094.125
32.480000000000004,7523.25,10094.3125
32.5,7523.375,10095.125
32.52,7523.625,10095.1875
32.54,7523.375,10094.625
32.56,7522.6875,10093.375
32.58,7522.0625,10092.375
32.6,7521.0,10089.875
32.62,7520.0625,10087.8125
32.64,7518.5625,10085.4375
32.660000000000004,7516.9375,10083.0
32.68,7515.875,10080.125
32.7,7514.375,10077.9375
32.72,7513.1875,10075.9375
32.74,7512.375,10073.8125
32.76,7511.1875,10072.5625
32.78,7510.0,10070.5
32.8,7509.3125,10069.8125
32.82,7509.25,10069.5
32.84,7509.125,10069.6875
32.86,7508.625,10069.0
32.88,7508.0,10068.1875
32.9,7507.5625,10067.8125
32.92,7506.8125,10066.625
32.94,7506.5625,10066.5
32.96,7506.5625,10065.9375
32.980000000000004,7505.9375,10065.6875
33.0,7505.75,10065.0
33.02,7504.875,10064.4375
33.04,7504.5,10064.0
33.06,7503.875,10063.0625
33.08,7503.3125,10062.8125
33.1,7503.5625,10062.75
33.12,7503.4375,10063.125
33.14,7502.9375,10062.5625
33.160000000000004,7503.1875,10062.875
33.18,7502.75,10062.5625
33.2,7501.875,10062.5
33.22,7501.875,10062.0
33.24,7502.25,10062.1875
33.26,7501.875,10062.3125
33.28,7501.3125,10062.125
33.3,7501.625,10062.1875
33.32,7501.5625,10062.6875
33.34,7501.375,10062.3125
33.36,7500.5625,10061.9375
33.38,7500.875,10062.0
33.4,7500.6875,10062.1875
33.42,7500.25,10062.375
33.44,7500.4375,10062.625
33.46,7500.4375,10062.25
33.480000000000004,7499.875,10061.9375
33.5,7499.5625,10060.625
33.52,7498.8125,10059.6875
33.54,7498.25,10058.4375
33.56,7498.25,10058.1875
33.58,7498.5,10058.8125
33.6,7498.1875,10058.625
33.62,7498.625,10057.75
33.64,7498.625,10058.125
33.660000000000004,7498.75,10058.5
33.68,7498.75,10058.5625
33.7,7498.4375,10058.5
33.72,7498.75,10058.8125
33.74,7499.375,10059.6875
33.76,7499.5,10059.875
33.78,7499.625,10060.8125
33.8,7499.875,10061.25
33.82,7500.5,10062.1875
33.84,7500.8125,10062.9375
33.86,7501.625,10063.9375
33.88,7501.8125,10065.25
33.9,7502.3125,10066.125
33.92,7502.8125,10066.4375
33.94,7503.25,10067.6875
33.96,7503.9375,10069.0
33.980000000000004,7504.8125,10070.3125
34.0,7505.5,10071.75
34.02,7506.125,10072.5625
34.04,7507.125,10073.75
34.06,7508.0625,10075.125
34.08,7508.5625,10076.125
34.1,7509.125,10077.1875
34.12,7510.0,10078.4375
34.14,7510.4375,10079.625
34.160000000000004,7511.0,10080.875
34.18,7511.6875,10082.375
34.2,7512.3125,10083.125
34.22,7512.9375,10083.9375
34.24,7513.6875,10084.875
34.26,7514.1875,10086.25
34.28,7514.6875,10087.125
34.300000000000004,7515.25,10087.5625
34.32,7515.25,10088.4375
34.34,7515.75,10089.1875
34.36,7515.75,10089.375
34.38,7515.5625,10089.5625
34.4,7515.8125,10089.25
34.42,7515.75,10089.375
34.44,7515.75,10089.625
34.46,7515.625,10089.375
34.480000000000004,7515.6875,10089.375
34.5,7515.875,10090.0625
34.52,7515.875,10089.4375
34.54,7515.75,10089.0625
34.56,7516.0625,10089.5
34.58,7516.25,10089.5625
34.6,7516.375,10090.25
34.62,7516.25,10090.8125
34.64,7516.6875,10091.0625
34.660000000000004,7516.9375,10091.5
34.68,7517.0625,10091.625
34.7,7516.9375,10091.4375
34.72,7516.6875,10091.1875
34.74,7517.3125,10092.25
34.76,7517.5625,10092.4375
34.78,7517.6875,10092.75
34.800000000000004,7517.8125,10093.0
34.82,7517.625,10093.125
34.84,7517.5625,10093.6875
34.86,7517.3125,10093.3125
34.88,7517.625,10093.875
34.9,7517.5,10094.0
34.92,7517.6875,10094.5625
34.94,7517.6875,10094.6875
34.96,7517.875,10095.125
34.980000000000004,7518.0625,10095.5
35.0,7517.8125,10095.0
35.02,7517.6875,10095.3125
35.04,7517.75,10095.125
35.06,7517.5625,10095.1875
35.08,7517.8125,10095.75
35.1,7517.75,10096.375
35.12,7517.875,10096.3125
35.14,7518.1875,10097.0625
35.160000000000004,7518.3125,10097.25
35.18,7518.1875,10097.125
35.2,7518.0625,10097.25
35.22,7518.0,10097.5625
35.24,7518.125,10097.6875
35.26,7517.375,10096.9375
35.28,7517.75,10096.625
35.300000000000004,7517.375,10096.25
35.32,7516.9375,10096.125
35.34,7516.8125,10095.3125
35.36,7516.5,10095.0
35.38,7515.875,10094.25
35.4,7515.1875,10093.0625
35.42,7515.5625,10092.9375
35.44,7515.0,10093.375
35.46,7515.3125,10093.625
35.480000000000004,7515.1875,10093.375
35.5,7515.1875,10093.4375
35.52,7515.1875,10093.5
35.54,7515.375,10094.1875
35.56,7515.1875,10093.8125
35.58,7515.5,10093.8125
35.6,7515.375,10094.125
35.62,7516.0,10095.375
35.64,7516.25,10095.9375
35.660000000000004,7516.6875,10096.1875
35.68,7517.0,10097.3125
35.7,7517.8125,10097.9375
35.72,7518.375,10099.125
35.74,7518.875,10100.5625
35.76,7519.875,10101.4375
35.78,7520.625,10102.5
35.800000000000004,7521.875,10103.9375
35.82,7523.5,10105.75
35.84,7524.6875,10107.0625
35.86,7526.6875,10108.6875
35.88,7528.25,10109.5625
35.9,7530.0625,10110.9375
35.92,7531.875,10111.875
35.94,7533.875,10113.8125
35.96,7535.6875,10115.125
35.980000000000004,7537.375,10116.25
36.0,7539.4375,10118.0625
36.02,7541.75,10120.1875
36.04,7543.75,10122.0
36.06,7545.4375,10123.125
36.08,7547.0625,10124.75
36.1,7548.875,10126.75
36.12,7551.25,10128.875
36.14,7553.4375,10131.3125
36.160000000000004,7556.4375,10134.6875
36.18,7559.125,10137.375
36.2,7561.125,10140.25
36.22,7563.5,10143.0625
36.24,7565.1875,10145.6875
36.26,7566.9375,10148.125
36.28,7568.3125,10150.625
36.300000000000004,7569.9375,10153.4375
36.32,7571.3125,10156.125
36.34,7572.375,10158.25
36.36,7572.25,10158.5
36.38,7572.3125,10158.9375
36.4,7572.5,10159.125
36.42,7573.1875,10161.125
36.44,7574.5,10163.375
36.46,7575.4375,10165.3125
36.480000000000004,7576.5625,10166.8125
36.5,7576.8125,10167.6875
36.52,7576.875,10168.1875
36.54,7576.75,10168.375
36.56,7576.9375,10168.625
36.58,7578.25,10170.875
36.6,7579.1875,10172.8125
36.62,7580.0,10174.875
36.64,7580.625,10176.625
36.660000000000004,7580.6875,10177.375
36.68,7580.875,10177.6875
36.7,7581.0625,10178.25
36.72,7581.625,10179.0
36.74,7582.0,10180.25
36.76,7582.5,10181.5625
36.78,7583.125,10182.875
36.800000000000004,7583.4375,10184.0
36.82,7584.1875,10185.0
36.84,7584.5,10185.875
36.86,7584.8125,10187.0625
36.88,7585.3125,10187.875
36.9,7585.8125,10189.0625
36.92,7585.875,10189.9375
36.94,7585.875,10190.4375
36.96,7586.3125,10190.8125
36.980000000000004,7586.75,10192.4375
37.0,7587.375,10193.9375
37.02,7587.5625,10194.625
37.04,7587.75,10195.25
37.06,7588.125,10195.75
37.08,7587.875,10195.375
37.1,7588.1875,10195.625
37.12,7588.3125,10195.625
37.14,7588.9375,10196.0625
37.160000000000004,7588.5,10196.5625
37.18,7589.0,10196.5625
37.2,7588.8125,10196.625
37.22,7589.0625,10196.875
37.24,7588.875,10197.25
37.26,7588.75,10197.1875
37.28,7588.75,10197.375
37.300000000000004,7588.875,10197.6875
37.32,7588.875,10197.875
37.34,7589.25,10198.5
37.36,7589.5,10199.0625
37.38,7589.375,10199.4375
37.4,7589.5625,10199.75
37.42,7589.6875,10200.125
37.44,7589.9375,10200.3125
37.46,7590.0,10200.625
37.480000000000004,7589.875,10201.25
37.5,7590.25,10201.375
37.52,7590.125,10201.5625
37.54,7590.25,10201.8125
37.56,7590.0625,10202.25
37.58,7590.5,10202.75
37.6,7590.6875,10202.75
37.62,7590.5,10202.8125
37.64,7590.625,10203.0
37.660000000000004,7590.3125,10202.875
37.68,7590.6875,10203.0625
37.7,7590.75,10203.3125
37.72,7590.625,10203.75
37.74,7591.0625,10204.0
37.76,7591.0625,10204.8125
37.78,7590.625,10204.625
37.800000000000004,7591.0,10205.0625
37.82,7590.8125,10205.0
37.84,7590.75,10205.1875
37.86,7590.625,10204.9375
37.88,7590.5,10205.375
37.9,7590.875,10205.6875
37.92,7591.375,10206.3125
37.94,7591.375,10206.0625
37.96,7590.875,10205.75
37.980000000000004,7590.9375,10205.25
38.0,7590.1875,10204.625
38.02,7590.375,10204.1875
38.04,7590.375,10204.125
38.06,7590.3125,10203.75
38.08,7590.0,10203.6875
38.1,7589.4375,10202.875
38.12,7589.25,10202.375
38.14,7589.125,10202.125
38.160000000000004,7589.0625,10202.375
38.18,7588.75,10201.5625
38.2,7588.625,10201.5625
38.22,7588.8125,10201.4375
38.24,7588.5,10201.25
38.26,7588.5625,10201.25
38.28,7588.1875,10201.375
38.300000000000004,7588.5,10201.4375
38.32,7588.125,10201.375
38.34,7588.0625,10201.0
38.36,7588.0625,10201.4375
38.38,7588.125,10201.125
38.4,7587.9375,10201.5625
38.42,7587.5625,10201.4375
38.44,7587.6875,10201.1875
38.46,7587.5,10201.0625
38.480000000000004,7587.5625,10201.625
38.5,7587.625,10201.625
38.52,7587.5625,10201.6875
38.54,7587.625,10201.375
38.56,7587.375,10201.4375
38.58,7587.5,10201.75
38.6,7587.5625,10201.875
38.62,7587.375,10201.6875
38.64,7587.4375,10202.1875
38.660000000000004,7587.75,10202.3125
38.68,7587.4375,10202.5
38.7,7587.5625,10202.4375
38.72,7587.5,10202.6875
38.74,7587.25,10202.1875
38.76,7587.5625,10202.6875
38.78,7587.375,10203.0625
38.800000000000004,7587.6875,10203.5
38.82,7587.5,10203.625
38.84,7587.6875,10203.8125
38.86,7587.625,10203.8125
38.88,7587.625,10203.125
38.9,7587.0625,10202.5625
38.92,7587.125,10202.3125
38.94,7587.1875,10202.0
38.96,7586.8125,10201.5
38.980000000000004,7586.5625,10200.9375
39.0,7586.75,10200.875
39.02,7586.5625,10200.8125
39.04,7586.375,10200.75
39.06,7586.1875,10200.3125
39.08,7586.3125,10200.4375
39.1,7586.125,10200.375
39.12,7586.375,10200.5
39.14,7586.375,10200.75
39.160000000000004,7586.0,10200.4375
39.18,7586.0625,10200.625
39.2,7586.0625,10200.5
39.22,7586.0625,10200.5625
39.24,7586.25,10201.3125
39.26,7586.4375,10202.25
39.28,7587.25,10202.25
39.300000000000004,7587.0625,10202.8125
39.32,7587.375,10203.25
39.34,7587.6875,10204.3125
39.36,7588.1875,10204.8125
39.38,7588.25,10205.5
39.4,7588.125,10205.5
39.42,7588.0,10205.625
39.44,7587.8125,10205.5625
39.46,7587.8125,10205.875
39.480000000000004,7587.375,10205.875
39.5,7587.125,10206.0625
39.52,7587.4375,10206.4375
39.54,7587.375,10206.375
39.56,7586.875,10206.3125
39.58,7586.5,10206.125
39.6,7586.5625,10206.4375
39.62,7586.125,10206.0625
39.64,7585.75,10206.25
39.660000000000004,7585.3125,10205.375
39.68,7585.4375,10205.8125
39.7,7585.0,10205.8125
39.72,7585.0625,10205.625
39.74,7584.625,10205.6875
39.76,7584.4375,10205.125
39.78,7584.625,10205.0
39.800000000000004,7584.1875,10204.125
39.82,7583.75,10203.3125
39.84,7583.375,10202.5625
39.86,7583.5625,10202.625
39.88,7583.1875,10201.8125
39.9,7582.875,10201.25
39.92,7582.75,10200.4375
39.94,7582.25,10199.8125
39.96,7581.875,10199.0625
39.980000000000004,7581.4375,10198.8125
40.0,7581.375,10198.3125
40.02,7580.9375,10197.8125
40.04,7581.0625,10197.5625
40.06,7580.6875,10197.3125
40.08,7580.625,10197.25
40.1,7580.0625,10196.5
40.12,7579.8125,10195.8125
40.14,7579.6875,10195.8125
40.160000000000004,7579.625,10195.75
40.18,7579.5,10195.9375
40.2,7579.4375,10195.75
40.22,7579.25,10195.6875
40.24,7579.375,10195.4375
40.26,7579.25,10195.625
40.28,7579.0625,10195.75
40.300000000000004,7579.0,10195.75
40.32,7579.0625,10195.8125
40.34,7578.9375,10195.875
40.36,7579.375,10196.125
40.38,7578.875,10196.25
40.4,7579.0,10196.6875
40.42,7578.8125,10195.9375
40.44,7579.0625,10197.0
40.46,7579.0625,10196.8125
40.480000000000004,7579.0,10197.0625
40.5,7579.0625,10196.9375
40.52,7578.9375,10197.4375
40.54,7579.375,10197.5
40.56,7578.875,10197.625
40.58,7579.0,10197.8125
40.6,7579.0625,10198.1875
40.62,7579.25,10198.25
40.64,7578.8125,10197.875
40.660000000000004,7578.8125,10197.1875
40.68,7578.6875,10196.75
40.7,7578.625,10196.25
40.72,7578.25,10195.75
40.74,7577.875,10194.9375
40.76,7577.625,10194.875
40.78,7577.375,10193.5
40.800000000000004,7576.75,10192.9375
40.82,7577.0,10192.8125
40.84,7576.6875,10192.4375
40.86,7576.625,10192.25
40.88,7576.75,10192.1875
40.9,7577.0625,10192.5625
40.92,7577.125,10192.375
40.94,7576.875,10191.5625
40.96,7576.6875,10191.1875
40.980000000000004,7576.5625,10191.0
41.0,7576.3125,10190.9375
41.02,7576.6875,10190.625
41.04,7576.375,10190.5625
41.06,7577.25,10190.625
41.08,7576.875,10190.5
41.1,7577.0625,10190.0625
41.12,7577.6875,10190.125
41.14,7577.625,10189.6875
41.160000000000004,7577.4375,10189.4375
41.18,7577.75,10189.375
41.2,7578.1875,10189.9375
41.22,7579.0625,10190.75
41.24,7579.0,10190.625
41.26,7579.4375,10190.8125
41.28,7580.0,10191.3125
41.300000000000004,7580.5625,10192.0625
41.32,7580.875,10192.75
41.34,7581.375,10194.125
41.36,7582.0,10195.5
41.38,7582.125,10196.4375
41.4,7581.5,10196.3125
41.42,7581.375,10195.8125
41.44,7580.875,10195.25
41.46,7580.5625,10195.0
41.480000000000004,7580.625,10195.4375
41.5,7581.5,10196.875
41.52,7581.9375,10197.6875
41.54,7581.875,10198.125
41.56,7581.6875,10197.5
41.58,7581.25,10196.75
41.6,7581.375,10195.8125
41.62,7581.375,10196.0625
41.64,7581.625,10196.25
41.660000000000004,7582.3125,10197.25
41.68,7582.125,10197.5
41.7,7582.1875,10197.0625
41.72,7582.0,10196.5625
41.74,7581.625,10196.125
41.76,7581.5,10196.3125
41.78,7581.5,10196.0625
41.800000000000004,7581.3125,10196.5625
41.82,7581.4375,10196.625
41.84,7581.5,10196.75
41.86,7581.6875,10197.25
41.88,7581.5625,10197.1875
41.9,7581.8125,10197.1875
41.92,7581.75,10197.5625
41.94,7581.875,10197.9375
41.96,7581.9375,10198.4375
41.980000000000004,7582.1875,10198.1875
42.0,7582.0625,10198.8125
42.02,7582.0,10199.0625
42.04,7582.125,10199.4375
42.06,7582.375,10200.0
42.08,7582.75,10200.375
42.1,7583.125,10201.125
42.12,7583.0625,10201.375
42.14,7583.5,10202.1875
42.160000000000004,7583.4375,10202.625
42.18,7583.8125,10203.375
42.2,7584.0,10203.8125
42.22,7583.875,10204.3125
42.24,7584.4375,10205.0
42.26,7584.5,10205.4375
42.28,7584.6875,10205.75
42.300000000000004,7585.0625,10206.4375
42.32,7585.125,10207.25
42.34,7585.5625,10207.5625
42.36,7585.4375,10208.0625
42.38,7585.4375,10208.9375
42.4,7585.75,10209.0
42.42,7585.875,10209.75
42.44,7586.3125,10210.1875
42.46,7586.5,10210.5
42.480000000000004,7586.75,10210.4375
42.5,7586.25,10209.875
42.52,7585.875,10209.75
42.54,7585.5625,10209.0
42.56,7585.9375,10208.875
42.58,7585.6875,10208.4375
42.6,7585.6875,10208.3125
42.62,7585.6875,10208.4375
42.64,7585.5,10207.5625
42.660000000000004,7585.1875,10207.375
42.68,7585.4375,10207.4375
42.7,7585.125,10207.3125
42.72,7585.375,10207.5625
42.74,7585.75,10207.875
42.76,7585.625,10207.8125
42.78,7585.3125,10207.8125
42.800000000000004,7585.4375,10207.375
42.82,7585.375,10208.125
42.84,7585.5625,10208.125
42.86,7585.375,10207.9375
42.88,7585.5625,10208.0625
42.9,7585.75,10208.375
42.92,7585.6875,10208.375
42.94,7585.9375,10208.5
42.96,7585.5625,10208.5
42.980000000000004,7585.25,10208.4375
43.0,7585.5,10208.5625
43.02,7585.6875,10209.0
43.04,7585.8125,10209.125
43.06,7585.75,10209.4375
43.08,7585.5,10209.0
43.1,7585.75,10209.1875
43.12,7585.75,10209.375
43.14,7585.5,10209.5625
43.160000000000004,7585.9375,10209.6875
43.18,7585.4375,10210.0
43.2,7586.25,10210.75
43.22,7586.375,10211.0625
43.24,7586.0,10211.3125
43.26,7586.1875,10211.5625
43.28,7586.0625,10211.5
43.300000000000004,7586.0,10211.9375
43.32,7586.375,10212.0
43.34,7586.5625,10212.25
43.36,7586.375,10212.0625
43.38,7586.25,10211.4375
43.4,7586.0625,10211.0
43.42,7585.9375,10210.25
43.44,7585.8125,10209.875
43.46,7585.75,10210.125
43.480000000000004,7585.3125,10209.8125
43.5,7585.625,10209.3125
43.52,7585.1875,10209.0625
43.54,7585.125,10208.4375
43.56,7585.0625,10208.4375
43.58,7584.8125,10207.9375
43.6,7584.875,10208.3125
43.62,7585.0625,10208.75
43.64,7585.3125,10208.875
43.660000000000004,7585.125,10208.875
43.68,7585.0,10208.6875
43.7,7585.0625,10208.75
43.72,7585.4375,10209.0
43.74,7585.25,10209.4375
43.76,7585.125,10209.6875
43.78,7585.5,10209.6875
43.800000000000004,7585.625,10209.6875
43.82,7585.625,10210.125
43.84,7585.375,10209.9375
43.86,7585.5,10210.25
43.88,7585.8125,10210.5625
43.9,7585.625,10210.6875
43.92,7585.8125,10210.625
43.94,7585.4375,10210.5
43.96,7585.6875,10210.625
43.980000000000004,7585.6875,10211.3125
44.0,7585.9375,10211.5625
44.02,7585.75,10211.75
44.04,7585.9375,10212.0625
44.06,7585.875,10212.0625
44.08,7586.25,10212.375
44.1,7586.0,10212.8125
44.12,7586.375,10212.9375
44.14,7586.25,10213.3125
44.160000000000004,7586.125,10213.1875
44.18,7586.125,10213.625
44.2,7586.5625,10214.25
44.22,7586.5625,10214.25
44.24,7586.5625,10214.8125
44.26,7586.875,10215.0625
44.28,7586.6875,10214.875
44.300000000000004,7586.6875,10214.6875
44.32,7586.5625,10214.3125
44.34,7586.25,10214.0625
44.36,7586.375,10213.9375
44.38,7586.4375,10214.125
44.4,7586.5625,10214.25
44.42,7586.1875,10213.75
44.44,7586.4375,10214.0625
44.46,7586.375,10213.5625
44.480000000000004,7586.25,10213.3125
44.5,7586.0625,10213.3125
44.52,7586.1875,10213.75
44.54,7586.3125,10214.0
44.56,7586.5,10214.4375
44.58,7586.25,10214.625
44.6,7586.3125,10214.6875
44.62,7586.625,10215.125
44.64,7586.625,10215.875
44.660000000000004,7586.6875,10215.875
44.68,7587.125,10216.125
44.7,7587.125,10217.375
44.72,7587.125,10217.3125
44.74,7587.4375,10217.75
44.76,7587.5,10218.8125
44.78,7587.625,10218.5
44.800000000000004,7587.5625,10218.625
44.82,7587.4375,10219.0625
44.84,7587.9375,10219.5625
44.86,7587.8125,10220.0
44.88,7588.125,10220.75
44.9,7588.25,10221.125
44.92,7588.4375,10221.625
44.94,7588.25,10221.875
44.96,7588.6875,10222.4375
44.980000000000004,7588.6875,10223.0625
45.0,7589.1875,10223.8125
45.02,7589.0,10224.1875
45.04,7589.4375,10225.0
45.06,7589.6875,10225.4375
45.08,7589.8125,10225.9375
45.1,7589.8125,10226.25
45.12,7589.75,10226.5
45.14,7590.125,10227.625
45.160000000000004,7590.5625,10228.25
45.18,7591.0,10228.875
45.2,7591.125,10229.5
45.22,7591.1875,10229.75
45.24,7591.375,10229.875
45.26,7591.5,10229.1875
45.28,7591.375,10229.125
45.300000000000004,7591.375,10229.3125
45.32,7591.25,10228.9375
45.34,7591.1875,10228.6875
45.36,7591.1875,10228.875
45.38,7591.125,10228.4375
45.4,7590.875,10228.1875
45.42,7590.25,10227.4375
45.44,7590.375,10227.8125
45.46,7590.625,10227.6875
45.480000000000004,7590.5625,10228.0625
45.5,7590.375,10228.4375
45.52,7590.625,10228.5
45.54,7590.625,10228.3125
45.56,7590.8125,10228.0
45.58,7590.625,10228.25
45.6,7590.6875,10228.3125
45.62,7590.9375,10228.625
45.64,7590.25,10227.8125
45.660000000000004,7590.375,10228.4375
45.68,7590.625,10228.4375
45.7,7590.3125,10228.5625
45.72,7590.5,10228.6875
45.74,7590.375,10228.375
45.76,7590.25,10228.625
45.78,7590.0,10228.25
45.800000000000004,7590.125,10228.5625
45.82,7590.375,10228.375
45.84,7590.0,10228.75
45.86,7590.0625,10228.9375
45.88,7590.3125,10229.0625
45.9,7589.9375,10228.875
45.92,7589.8125,10228.4375
45.94,7590.375,10228.75
45.96,7590.1875,10229.25
45.980000000000004,7590.25,10229.25
46.0,7590.0,10229.625
46.02,7590.3125,10229.4375
46.04,7590.375,10229.375
46.06,7590.375,10229.625
46.08,7590.375,10230.1875
46.1,7590.625,10230.25
46.12,7590.6875,10230.5625
46.14,7590.375,10230.25
46.160000000000004,7590.4375,10229.5625
46.18,7590.0625,10228.875
46.2,7590.1875,10228.8125
46.22,7589.875,10228.6875
46.24,7590.0625,10227.9375
46.26,7589.8125,10227.6875
46.28,7589.625,10227.375
46.300000000000004,7589.5625,10227.25
46.32,7589.5,10226.625
46.34,7589.3125,10226.4375
46.36,7588.875,10226.375
46.38,7589.125,10226.1875
46.4,7589.1875,10226.125
46.42,7589.1875,10225.8125
46.44,7588.6875,10226.0
46.46,7588.875,10225.625
46.480000000000004,7588.5,10225.1875
46.5,7588.5,10225.125
46.52,7588.25,10225.0
46.54,7588.5,10225.4375
46.56,7588.625,10225.1875
46.58,7588.375,10225.4375
46.6,7588.6875,10225.8125
46.62,7588.75,10225.4375
46.64,7588.3125,10225.5625
46.660000000000004,7588.75,10225.625
46.68,7588.8125,10225.6875
46.7,7588.5,10225.875
46.72,7588.375,10225.625
46.74,7589.0,10225.75
46.76,7589.0625,10225.875
46.78,7588.75,10225.8125
46.800000000000004,7588.8125,10226.3125
46.82,7588.875,10225.9375
46.84,7589.0625,10226.1875
46.86,7588.75,10225.9375
46.88,7588.75,10226.75
46.9,7589.25,10227.0
46.92,7589.375,10227.4375
46.94,7589.375,10227.1875
46.96,7589.125,10227.375
46.980000000000004,7588.9375,10227.375
47.0,7589.0,10227.25
47.02,7589.4375,10227.375
47.04,7589.375,10227.75
47.06,7589.1875,10227.75
47.08,7589.5,10228.1875
47.1,7589.75,10228.75
47.12,7589.625,10228.25
47.14,7589.4375,10227.875
47.160000000000004,7589.125,10226.9375
47.18,7589.0625,10226.9375
47.2,7588.8125,10226.625
47.22,7588.9375,10226.3125
47.24,7588.8125,10226.0625
47.26,7588.6875,10226.125
47.28,7588.5625,10226.0
47.300000000000004,7588.4375,10225.75
47.32,7588.25,10225.25
47.34,7588.375,10225.375
47.36,7588.375,10225.4375
47.38,7588.4375,10225.6875
47.4,7588.0,10225.375
47.42,7588.1875,10225.4375
47.44,7587.9375,10225.4375
47.46,7588.1875,10226.3125
47.480000000000004,7588.25,10226.125
47.5,7588.375,10226.5625
47.52,7588.375,10226.6875
47.54,7588.3125,10226.9375
47.56,7588.5625,10227.0625
47.58,7588.1875,10226.75
47.6,7588.4375,10227.125
47.62,7588.5,10227.4375
47.64,7588.4375,10227.8125
47.660000000000004,7588.875,10227.9375
47.68,7588.875,10228.3125
47.7,7589.375,10229.1875
47.72,7589.5625,10230.125
47.74,7589.75,10230.125
47.76,7589.625,10230.8125
47.78,7589.875,10231.6875
47.800000000000004,7590.375,10232.125
47.82,7590.6875,10232.6875
47.84,7590.75,10233.1875
47.86,7590.75,10233.5
47.88,7591.1875,10233.75
47.9,7591.0625,10234.625
47.92,7591.1875,10234.625
47.94,7591.0,10235.0
47.96,7591.625,10235.75
47.980000000000004,7591.875,10235.75
48.0,7592.0,10236.375
48.02,7592.25,10237.125
48.04,7592.375,10237.5625
48.06,7592.625,10237.875
48.08,7592.4375,10238.375
48.1,7592.875,10238.4375
48.120000000000005,7592.75,10237.9375
48.14,7592.5625,10237.75
48.160000000000004,7592.4375,10236.8125
48.18,7592.4375,10236.6875
48.2,7592.25,10236.0625
48.22,7591.8125,10235.75
48.24,7592.875,10236.0625
48.26,7592.75,10236.4375
48.28,7593.375,10237.25
48.300000000000004,7593.125,10236.8125
48.32,7592.125,10235.6875
48.34,7590.875,10234.0
48.36,7589.9375,10232.75
48.38,7589.5,10231.25
48.4,7588.5625,10229.125
48.42,7586.625,10225.9375
48.44,7584.875,10222.125
48.46,7583.125,10218.875
48.480000000000004,7581.1875,10215.3125
48.5,7579.0625,10211.5625
48.52,7577.1875,10208.5625
48.54,7575.375,10205.1875
48.56,7573.25,10201.0
48.58,7570.5625,10196.4375
48.6,7567.8125,10191.25
48.620000000000005,7565.25,10186.5
48.64,7563.1875,10182.0
48.660000000000004,7560.9375,10178.0625
48.68,7559.25,10175.0
48.7,7557.5,10173.125
48.72,7556.6875,10171.5
48.74,7555.625,10170.125
48.76,7554.5,10168.625
48.78,7553.0625,10167.1875
48.800000000000004,7552.25,10166.0
48.82,7551.1875,10164.625
48.84,7550.625,10164.0
48.86,7550.1875,10163.6875
48.88,7549.5625,10163.5625
48.9,7550.125,10163.6875
48.92,7549.0,10162.8125
48.94,7548.375,10162.125
48.96,7547.5625,10161.3125
48.980000000000004,7547.4375,10161.125
49.0,7547.375,10160.9375
49.02,7546.9375,10161.1875
49.04,7546.8125,10160.5625
49.06,7546.375,10159.6875
49.08,7546.1875,10159.0
49.1,7546.0625,10158.6875
49.120000000000005,7545.5,10158.4375
49.14,7545.1875,10157.5625
49.160000000000004,7545.0625,10157.0
49.18,7545.0625,10156.6875
49.2,7544.375,10155.5625
49.22,7543.9375,10154.5
49.24,7543.0625,10153.875
49.26,7542.9375,10153.3125
49.28,7542.6875,10152.875
49.300000000000004,7542.5,10152.125
49.32,7541.8125,10151.875
49.34,7541.375,10151.125
49.36,7541.3125,10150.5625
49.38,7540.625,10149.875
49.4,7540.3125,10148.875
49.42,7539.8125,10148.0625
49.44,7539.125,10147.375
49.46,7538.875,10146.5
49.480000000000004,7538.4375,10146.25
49.5,7538.1875,10145.25
49.52,7537.5,10144.9375
49.54,7536.9375,10144.125
49.56,7537.0,10143.0625
49.58,7536.125,10142.5625
49.6,7535.625,10141.75
49.620000000000005,7535.375,10141.6875
49.64,7534.6875,10140.25
49.660000000000004,7533.875,10139.5625
49.68,7533.25,10138.6875
49.7,7532.875,10137.9375
49.72,7532.3125,10137.375
49.74,7531.5625,10136.1875
49.76,7531.375,10135.9375
49.78,7530.875,10135.8125
49.800000000000004,7531.0,10136.3125
49.82,7531.125,10137.0
49.84,7530.875,10136.5625
49.86,7530.5625,10136.125
49.88,7531.125,10137.4375
49.9,7531.3125,10138.4375
49.92,7531.3125,10138.125
49.94,7531.125,10138.4375
49.96,7531.3125,10138.4375
49.980000000000004,7531.4375,10139.125
50.0,7531.4375,10139.4375
50.02,7531.75,10139.5
50.04,7531.25,10139.125
50.06,7530.875,10138.0
50.08,7530.6875,10137.375
50.1,7530.3125,10136.4375
50.120000000000005,7530.375,10136.0
50.14,7530.1875,10135.625
50.160000000000004,7530.3125,10135.25
50.18,7530.125,10134.625
50.2,7529.625,10134.1875
50.22,7529.25,10133.1875
50.24,7528.875,10133.0625
50.26,7529.0,10133.0625
50.28,7528.5625,10132.0
50.300000000000004,7528.1875,10131.1875
50.32,7528.0,10131.25
50.34,7528.0625,10131.25
50.36,7527.5625,10130.8125
50.38,7527.1875,10130.4375
50.4,7527.25,10130.125
50.42,7527.4375,10130.5
50.44,7527.5625,10130.6875
50.46,7527.3125,10130.5625
50.480000000000004,7527.375,10130.625
50.5,7527.625,10130.5625
50.52,7527.375,10131.1875
50.54,7527.6875,10131.4375
50.56,7527.75,10131.4375
50.58,7527.9375,10131.6875
50.6,7527.8125,10131.75
50.620000000000005,7527.9375,10132.4375
50.64,7527.8125,10132.1875
50.660000000000004,7528.6875,10133.0625
50.68,7528.4375,10133.25
50.7,7528.4375,10133.5625
50.72,7528.75,10133.5625
50.74,7528.75,10133.625
50.76,7528.8125,10134.1875
50.78,7529.5,10135.125
50.800000000000004,7530.0,10135.875
50.82,7530.5625,10136.5625
50.84,7530.6875,10136.9375
50.86,7530.5,10136.4375
50.88,7530.25,10136.6875
50.9,7530.8125,10137.5625
50.92,7531.1875,10138.8125
50.94,7531.1875,10139.0
50.96,7531.125,10139.1875
50.980000000000004,7531.4375,10139.1875
51.0,7531.5625,10139.8125
51.02,7531.8125,10140.5625
51.04,7532.1875,10140.9375
51.06,7532.25,10141.375
51.08,7532.8125,10141.5
51.1,7532.6875,10141.4375
51.120000000000005,7532.8125,10141.0625
51.14,7532.625,10141.1875
51.160000000000004,7533.125,10141.375
51.18,7533.25,10141.1875
51.2,7533.5625,10141.1875
51.22,7533.5625,10140.9375
51.24,7533.9375,10141.625
51.26,7534.375,10141.5625
51.28,7534.0,10141.5
51.300000000000004,7534.8125,10142.625
51.32,7534.875,10142.6875
51.34,7535.375,10143.25
51.36,7535.4375,10143.6875
51.38,7535.875,10144.5625
51.4,7536.4375,10145.0
51.42,7536.6875,10145.625
51.44,7537.1875,10146.1875
51.46,7537.4375,10146.9375
51.480000000000004,7537.5,10147.1875
51.5,7537.75,10147.375
51.52,7538.375,10148.3125
51.54,7538.8125,10149.4375
51.56,7539.3125,10149.875
51.58,7539.625,10150.8125
51.6,7540.6875,10151.9375
51.620000000000005,7541.625,10153.125
51.64,7541.75,10154.75
51.660000000000004,7543.1875,10156.625
51.68,7544.3125,10158.625
51.7,7545.75,10161.1875
51.72,7548.125,10164.0
51.74,7550.0,10166.4375
51.76,7551.0,10167.9375
51.78,7553.0625,10170.1875
51.800000000000004,7555.1875,10173.5
51.82,7557.875,10176.5
51.84,7559.875,10179.25
51.86,7561.9375,10182.0
51.88,7563.9375,10184.5
51.9,7565.125,10185.8125
51.92,7566.0625,10186.5625
51.94,7566.9375,10187.1875
51.96,7568.1875,10187.875
51.980000000000004,7569.375,10189.6875
52.0,7571.25,10192.0625
52.02,7573.25,10194.75
52.04,7575.8125,10197.4375
52.06,7577.8125,10200.1875
52.08,7578.9375,10201.3125
52.1,7580.125,10202.75
52.120000000000005,7581.125,10204.3125
52.14,7582.0,10205.8125
52.160000000000004,7583.0,10207.0625
52.18,7584.0625,10208.4375
52.2,7584.625,10209.8125
52.22,7585.5625,10211.375
52.24,7586.9375,10213.5
52.26,7588.1875,10215.75
52.28,7589.25,10217.75
52.300000000000004,7589.625,10218.625
52.32,7589.1875,10218.25
52.34,7589.0625,10218.375
52.36,7589.125,10219.125
52.38,7589.625,10220.1875
52.4,7590.8125,10222.0625
52.42,7591.0625,10223.4375
52.44,7591.5,10224.1875
52.46,7591.6875,10224.5
52.480000000000004,7591.9375,10224.875
52.5,7592.625,10225.4375
52.52,7593.1875,10226.75
52.54,7593.9375,10228.6875
52.56,7595.0625,10230.0625
52.58,7595.3125,10231.3125
52.6,7595.6875,10232.1875
52.620000000000005,7595.875,10232.8125
52.64,7595.75,10233.0625
52.660000000000004,7595.75,10233.4375
52.68,7596.0,10234.0
52.7,7595.625,10233.9375
52.72,7596.1875,10234.9375
52.74,7596.5,10235.3125
52.76,7597.0,10235.8125
52.78,7596.5625,10236.1875
52.800000000000004,7596.4375,10236.0
52.82,7596.5625,10236.25
52.84,7596.875,10236.9375
52.86,7596.9375,10236.9375
52.88,7596.8125,10237.6875
52.9,7597.125,10237.5
52.92,7597.0,10237.75
52.94,7597.0,10238.5625
52.96,7597.5,10238.9375
52.980000000000004,7597.6875,10239.75
53.0,7597.6875,10227.75
53.02,7597.6875,10228.1875
53.04,7597.875,10227.4375
53.06,7597.5625,10227.1875
53.08,7597.625,10227.375
53.1,7597.6875,10227.0
53.120000000000005,7597.375,10226.625
53.14,7597.5,10226.4375
53.160000000000004,7597.3125,10225.75
53.18,7596.6875,10225.75
53.2,7597.125,10225.625
53.22,7596.5625,10225.0
53.24,7596.5625,10225.3125
53.26,7596.6875,10224.4375
53.28,7596.75,10224.4375
53.300000000000004,7596.75,10224.0
53.32,7596.8125,10224.25
53.34,7597.0625,10224.5
53.36,7597.1875,10225.0
53.38,7597.125,10224.3125
53.4,7597.3125,10224.5
53.42,7596.9375,10224.625
53.44,7597.25,10224.75
53.46,7597.0,10224.75
53.480000000000004,7596.875,10224.875
53.5,7597.0625,10225.0
53.52,7596.8125,10224.625
53.54,7596.9375,10224.8125
53.56,7596.8125,10225.125
53.58,7597.0625,10225.3125
53.6,7597.0,10225.75
53.620000000000005,7597.5,10226.5
53.64,7597.75,10227.4375
53.660000000000004,7597.9375,10227.875
53.68,7598.125,10227.875
53.7,7598.125,10227.625
53.72,7598.375,10227.875
53.74,7598.3125,10227.75
53.76,7598.25,10228.3125
53.78,7598.3125,10228.5
53.800000000000004,7598.625,10229.3125
53.82,7598.5,10229.1875
53.84,7598.625,10229.5625
53.86,7598.6875,10229.875
53.88,7598.875,10231.25
53.9,7599.375,10231.9375
53.92,7599.1875,10232.0
53.94,7599.125,10232.5
53.96,7598.5,10231.875
53.980000000000004,7598.75,10231.875
54.0,7598.6875,10231.75
54.02,7598.375,10232.0625
54.04,7598.375,10231.25
54.06,7598.3125,10230.875
54.08,7597.5625,10230.6875
54.1,7597.4375,10230.375
54.120000000000005,7597.3125,10230.0
54.14,7597.3125,10230.0625
54.160000000000004,7597.1875,10230.0
54.18,7597.375,10229.75
54.2,7597.625,10230.0
54.22,7597.25,10230.125
54.24,7597.3125,10230.5625
54.26,7597.9375,10231.0
54.28,7598.0,10231.625
54.300000000000004,7598.0,10231.9375
54.32,7597.75,10231.75
54.34,7598.0625,10232.75
54.36,7598.0,10232.8125
54.38,7598.125,10233.5625
54.4,7598.0,10233.8125
54.42,7598.3125,10234.125
54.44,7598.25,10234.3125
54.46,7598.125,10234.25
54.480000000000004,7597.8125,10234.25
54.5,7598.0625,10234.5625
54.52,7598.1875,10235.5
54.54,7598.0625,10235.8125
54.56,7598.625,10236.0625
54.58,7598.625,10236.6875
54.6,7598.875,10237.6875
54.620000000000005,7598.75,10238.0625
54.64,7598.8125,10237.75
54.660000000000004,7598.8125,10238.375
54.68,7598.6875,10238.5625
54.7,7599.0,10239.375
54.72,7599.125,10240.1875
54.74,7599.5,10240.4375
54.76,7599.5625,10241.5
54.78,7599.6875,10241.3125
54.800000000000004,7599.6875,10241.6875
54.82,7599.5,10242.4375
54.84,7599.9375,10243.0
54.86,7600.1875,10243.375
54.88,7600.5,10243.6875
54.9,7600.0,10243.5
54.92,7600.0,10243.4375
54.94,7600.1875,10243.3125
54.96,7600.375,10243.375
54.980000000000004,7600.25,10243.4375
55.0,7600.1875,10243.0
55.02,7600.125,10242.5
55.04,7600.0625,10242.75
55.06,7599.6875,10242.5
55.08,7599.625,10242.5
55.1,7599.5625,10242.6875
55.120000000000005,7599.75,10242.875
55.14,7599.8125,10242.75
55.160000000000004,7599.9375,10243.125
55.18,7599.5625,10243.0
55.2,7599.9375,10243.4375
55.22,7600.0625,10243.25
55.24,7600.125,10243.6875
55.26,7600.125,10243.625
55.28,7599.9375,10243.6875
55.300000000000004,7600.3125,10244.0
55.32,7600.25,10244.0625
55.34,7600.375,10244.3125
55.36,7599.9375,10244.3125
55.38,7599.875,10244.1875
55.4,7600.1875,10244.375
55.42,7600.1875,10244.4375
55.44,7599.875,10244.3125
55.46,7600.125,10244.875
55.480000000000004,7600.625,10245.4375
55.5,7600.4375,10245.5
55.52,7600.5,10245.5625
55.54,7600.1875,10245.875
55.56,7600.25,10246.25
55.58,7600.5625,10246.5625
55.6,7601.0,10246.875
55.620000000000005,7600.6875,10246.9375
55.64,7601.125,10247.0625
55.660000000000004,7600.875,10247.5625
55.68,7601.125,10248.0
55.7,7601.25,10248.125
55.72,7601.4375,10248.25
55.74,7601.3125,10247.8125
55.76,7600.875,10247.375
55.78,7600.5625,10246.6875
55.800000000000004,7600.75,10246.75
55.82,7600.75,10246.375
55.84,7600.875,10246.375
55.86,7600.9375,10245.875
55.88,7600.6875,10245.9375
55.9,7600.4375,10245.25
55.92,7600.375,10244.625
55.94,7600.125,10244.75
55.96,7600.0,10244.625
55.980000000000004,7600.1875,10244.75
56.0,7600.1875,10244.875
56.02,7600.4375,10244.9375
56.04,7600.25,10244.5
56.06,7599.9375,10244.625
56.08,7599.6875,10244.25
56.1,7599.75,10244.4375
56.120000000000005,7600.125,10244.8125
56.14,7599.8125,10244.625
56.160000000000004,7600.0,10245.125
56.18,7600.1875,10244.75
56.2,7599.6875,10245.0
56.22,7599.625,10245.1875
56.24,7599.8125,10244.8125
56.26,7599.875,10245.5
56.28,7600.1875,10245.5625
56.300000000000004,7600.375,10246.0625
56.32,7600.125,10246.0
56.34,7600.25,10245.875
56.36,7600.25,10246.375
56.38,7600.4375,10246.5
56.4,7600.3125,10246.625
56.42,7600.625,10246.5625
56.44,7600.375,10246.625
56.46,7600.4375,10247.0625
56.480000000000004,7600.625,10247.3125
56.5,7600.6875,10247.5
56.52,7601.125,10248.125
56.54,7600.75,10248.1875
56.56,7600.6875,10248.375
56.58,7601.3125,10249.0
56.6,7601.0,10249.25
56.620000000000005,7601.25,10249.5625
56.64,7601.5625,10249.6875
56.660000000000004,7601.5,10249.3125
56.68,7601.3125,10249.125
56.7,7600.9375,10248.125
56.72,7600.75,10248.0
56.74,7600.625,10247.625
56.76,7600.9375,10247.4375
56.78,7600.875,10247.25
56.800000000000004,7600.4375,10246.4375
56.82,7600.5,10245.9375
56.84,7600.375,10246.0
56.86,7599.75,10245.375
56.88,7599.5,10245.0
56.9,7599.75,10245.0
56.92,7600.0,10245.0
56.94,7599.8125,10245.0
56.96,7599.8125,10244.4375
56.980000000000004,7599.625,10244.3125
57.0,7599.375,10243.875
57.02,7599.375,10244.375
57.04,7599.4375,10244.5
57.06,7599.25,10244.25
57.08,7599.5625,10244.6875
57.1,7599.5625,10244.6875
57.120000000000005,7599.5,10244.5
57.14,7599.3125,10244.3125
57.160000000000004,7599.625,10244.375
57.18,7599.6875,10244.6875
57.2,7599.5,10244.75
57.22,7599.4375,10244.4375
57.24,7599.625,10244.4375
57.26,7599.375,10244.875
57.28,7599.625,10245.0
57.300000000000004,7599.875,10245.375
57.32,7599.8125,10245.625
57.34,7599.5625,10245.4375
57.36,7599.8125,10245.75
57.38,7600.0,10246.0
57.4,7600.25,10246.25
57.42,7599.8125,10246.4375
57.44,7600.1875,10246.5
57.46,7599.875,10246.8125
57.480000000000004,7600.4375,10247.3125
57.5,7600.4375,10247.5625
57.52,7600.375,10247.625
57.54,7600.5625,10248.0625
57.56,7600.5625,10248.3125
57.58,7600.5625,10248.4375
57.6,7601.1875,10249.25
57.620000000000005,7601.0,10249.1875
57.64,7601.0625,10249.0
57.660000000000004,7600.5,10248.3125
57.68,7600.4375,10247.625
57.7,7600.125,10246.9375
57.72,7600.1875,10246.625
57.74,7600.25,10246.5
57.76,7600.0625,10246.25
57.78,7599.8125,10245.6875
57.800000000000004,7599.8125,10245.4375
57.82,7599.4375,10244.875
57.84,7599.6875,10244.375
57.86,7599.1875,10244.0
57.88,7599.375,10244.4375
57.9,7599.3125,10244.5
57.92,7599.5625,10244.3125
57.94,7599.0,10244.3125
57.96,7599.3125,10244.0
57.980000000000004,7599.4375,10243.875
58.0,7599.0,10243.9375
58.02,7599.3125,10244.0
58.04,7599.3125,10244.125
58.06,7599.375,10243.8125
58.08,7599.0625,10244.1875
58.1,7599.125,10244.1875
58.120000000000005,7598.9375,10243.875
58.14,7598.875,10243.5625
58.160000000000004,7599.125,10244.25
58.18,7599.125,10244.25
58.2,7599.125,10244.5
58.22,7599.5625,10245.0
58.24,7599.1875,10244.625
58.26,7599.5,10244.9375
58.28,7599.4375,10245.125
58.300000000000004,7599.3125,10245.1875
58.32,7599.5,10245.375
58.34,7599.3125,10245.4375
58.36,7599.5,10245.6875
58.38,7599.75,10246.25
58.4,7599.75,10246.375
58.42,7599.6875,10246.625
58.44,7599.4375,10246.125
58.46,7599.5,10246.625
58.480000000000004,7599.6875,10246.5
58.5,7599.9375,10246.5625
58.52,7599.9375,10247.4375
58.54,7599.9375,10247.375
58.56,7600.0625,10248.0625
58.58,7600.3125,10248.125
58.6,7600.375,10248.8125
58.620000000000005,7600.4375,10249.25
58.64,7600.6875,10249.4375
58.660000000000004,7601.0625,10249.625
58.68,7601.0,10249.375
58.7,7600.5,10248.6875
58.72,7600.375,10248.3125
58.74,7600.0625,10247.5
58.76,7600.125,10247.25
58.78,7600.1875,10247.3125
58.800000000000004,7600.25,10247.1875
58.82,7599.9375,10246.875
58.84,7599.875,10246.375
58.86,7599.75,10246.125
58.88,7599.75,10245.9375
58.9,7599.3125,10245.8125
58.92,7599.8125,10245.9375
58.94,7599.625,10246.3125
58.96,7599.6875,10245.75
58.980000000000004,7599.9375,10245.75
59.0,7599.375,10245.3125
59.02,7599.0,10245.6875
59.04,7598.8125,10245.5625
59.06,7599.375,10245.6875
59.08,7599.5,10246.0
59.1,7599.4375,10246.0
59.120000000000005,7599.5,10246.5
59.14,7599.75,10246.4375
59.160000000000004,7599.4375,10246.625
59.18,7599.5,10246.4375
59.2,7599.8125,10247.0625
59.22,7599.6875,10246.8125
59.24,7599.625,10246.8125
59.26,7599.4375,10246.8125
59.28,7599.25,10246.6875
59.300000000000004,7599.625,10246.8125
59.32,7599.4375,10247.1875
59.34,7599.375,10247.0
59.36,7599.5,10247.3125
59.38,7599.3125,10247.25
59.4,7599.1875,10247.5
59.42,7599.375,10247.5
59.44,7599.4375,10248.0625
59.46,7599.5,10248.5
59.480000000000004,7599.875,10248.5625
59.5,7599.5625,10248.6875
59.52,7599.6875,10248.875
59.54,7599.9375,10249.125
59.56,7600.0625,10249.8125
59.58,7599.875,10249.625
59.6,7599.9375,10249.8125
59.620000000000005,7600.0625,10250.0625
59.64,7600.125,10250.5625
59.660000000000004,7600.375,10250.75
59.68,7600.3125,10251.375
59.7,7600.625,10251.5625
59.72,7600.9375,10251.75
59.74,7600.5,10250.6875
59.76,7600.25,10250.0
59.78,7599.6875,10249.4375
59.800000000000004,7599.8125,10249.1875
59.82,7599.375,10248.6875
59.84,7599.75,10248.5
59.86,7599.6875,10248.5625
59.88,7599.25,10248.1875
59.9,7598.9375,10247.375
59.92,7598.8125,10247.3125
59.94,7599.0,10247.125
59.96,7598.625,10246.625
59.980000000000004,7598.625,10246.75
60.0,7598.625,10246.625
60.02,7598.3125,10246.4375
60.04,7598.5,10246.5625
60.06,7598.5,10246.5
60.08,7598.3125,10246.375
60.1,7598.4375,10246.5
60.120000000000005,7598.1875,10246.5625
60.14,7598.1875,10246.875
60.160000000000004,7598.375,10246.9375
60.18,7598.6875,10247.75
60.2,7598.875,10247.875
60.22,7599.375,10248.375
60.24,7598.875,10248.6875
60.26,7598.8125,10248.625
60.28,7599.25,10248.75
60.300000000000004,7599.1875,10249.4375
60.32,7599.3125,10249.625
60.34,7599.3125,10250.25
60.36,7599.875,10250.75
60.38,7599.625,10251.125
60.4,7599.75,10251.4375
60.42,7599.9375,10251.5
60.44,7600.1875,10252.0625
60.46,7600.625,10252.875
60.480000000000004,7600.625,10253.0
60.5,7600.6875,10253.75
60.52,7600.8125,10254.0625
60.54,7600.75,10254.6875
60.56,7600.9375,10255.0
60.58,7601.0,10255.3125
60.6,7600.875,10255.9375
60.620000000000005,7601.4375,10256.625
60.64,7601.875,10256.9375
60.660000000000004,7601.25,10257.1875
60.68,7601.75,10257.875
60.7,7602.4375,10258.75
60.72,7602.125,10259.25
60.74,7602.8125,10259.75
60.76,7602.875,10260.125
60.78,7603.0625,10260.3125
60.800000000000004,7602.625,10259.5625
60.82,7602.875,10259.4375
60.84,7602.8125,10259.875
60.86,7603.0625,10260.0625
60.88,7603.0,10259.9375
60.9,7603.0,10259.9375
60.92,7602.5625,10259.5
60.94,7602.625,10259.75
60.96,7602.75,10259.8125
60.980000000000004,7602.75,10260.0
61.0,7603.0625,10260.4375
61.02,7603.1875,10260.5625
61.04,7603.5625,10261.375
61.06,7603.8125,10261.6875
61.08,7603.9375,10262.0625
61.1,7604.0,10262.1875
61.120000000000005,7603.8125,10262.4375
61.14,7603.875,10262.75
61.160000000000004,7604.375,10263.0
61.18,7603.9375,10263.125
61.2,7604.0,10263.125
61.22,7604.4375,10263.75
61.24,7604.625,10264.3125
61.26,7604.6875,10264.5625
61.28,7604.625,10264.4375
61.300000000000004,7604.5,10264.875
61.32,7604.625,10265.0
61.34,7604.75,10265.0
61.36,7604.8125,10265.3125
61.38,7604.25,10264.5
61.4,7604.375,10264.625
61.42,7604.0,10264.375
61.44,7604.125,10264.4375
61.46,7604.5625,10265.0625
61.480000000000004,7604.0625,10264.9375
61.5,7604.5625,10265.125
61.52,7604.5625,10265.5
61.54,7604.75,10265.3125
61.56,7604.4375,10265.625
61.58,7604.9375,10266.25
61.6,7604.75,10266.875
61.620000000000005,7604.8125,10266.625
61.64,7604.5,10266.625
61.660000000000004,7604.25,10266.4375
61.68,7604.25,10266.5
61.7,7604.4375,10265.75
61.72,7604.375,10265.5
61.74,7604.25,10264.875
61.76,7604.1875,10264.8125
61.78,7604.0,10264.1875
61.800000000000004,7603.875,10263.875
61.82,7603.3125,10263.0
61.84,7603.125,10263.125
61.86,7603.3125,10262.4375
61.88,7603.3125,10262.0625
61.9,7602.9375,10262.125
61.92,7603.0625,10262.0625
61.940000000000005,7603.0625,10262.375
61.96,7603.0,10262.375
61.980000000000004,7603.3125,10262.0
62.0,7602.75,10261.75
62.02,7602.8125,10261.8125
62.04,7602.75,10261.875
62.06,7602.75,10261.9375
62.08,7602.8125,10261.5
62.1,7602.5,10261.375
62.120000000000005,7602.3125,10261.5625
62.14,7602.3125,10261.6875
62.160000000000004,7602.5,10261.5
62.18,7602.875,10261.4375
62.2,7602.3125,10261.375
62.22,7602.1875,10261.375
62.24,7602.1875,10261.5625
62.26,7602.4375,10261.4375
62.28,7602.25,10261.4375
62.300000000000004,7602.1875,10261.6875
62.32,7602.0625,10262.0625
62.34,7602.125,10262.125
62.36,7602.4375,10262.0
62.38,7602.25,10261.9375
62.4,7602.3125,10262.125
62.42,7601.9375,10261.9375
62.440000000000005,7602.375,10261.625
62.46,7602.1875,10262.125
62.480000000000004,7602.375,10261.9375
62.5,7602.5,10262.3125
62.52,7602.375,10262.8125
62.54,7602.8125,10263.0625
62.56,7602.625,10262.5625
62.58,7602.9375,10262.8125
62.6,7602.5625,10262.125
62.620000000000005,7602.1875,10261.1875
62.64,7602.1875,10260.75
62.660000000000004,7602.0625,10260.4375
62.68,7602.25,10260.0625
62.7,7601.875,10259.375
62.72,7601.4375,10258.8125
62.74,7601.25,10258.0625
62.76,7601.375,10257.875
62.78,7601.125,10257.375
62.800000000000004,7600.9375,10257.0
62.82,7601.0,10256.75
62.84,7600.75,10256.5625
62.86,7600.625,10256.1875
62.88,7600.625,10255.8125
62.9,7600.4375,10255.875
62.92,7600.25,10255.75
62.940000000000005,7600.25,10255.75
62.96,7599.875,10255.6875
62.980000000000004,7600.1875,10255.4375
63.0,7600.25,10255.4375
63.02,7600.3125,10255.25
63.04,7600.1875,10255.125
63.06,7600.0,10254.875
63.08,7600.4375,10255.4375
63.1,7600.375,10255.125
63.120000000000005,7600.375,10255.5625
63.14,7600.25,10255.625
63.160000000000004,7600.625,10255.5625
63.18,7600.4375,10255.6875
63.2,7600.5625,10255.75
63.22,7600.5,10255.625
63.24,7600.5625,10255.6875
63.26,7600.5625,10255.6875
63.28,7600.6875,10256.1875
63.300000000000004,7600.5,10256.25
63.32,7600.5,10256.1875
63.34,7600.25,10256.125
63.36,7600.5625,10256.5
63.38,7600.8125,10256.5625
63.4,7600.625,10256.75
63.42,7600.5625,10256.8125
63.440000000000005,7600.8125,10257.0625
63.46,7600.8125,10257.75
63.480000000000004,7601.0625,10257.875
63.5,7600.875,10257.9375
63.52,7601.25,10258.0
63.54,7600.9375,10257.5625
63.56,7601.0625,10258.3125
63.58,7600.8125,10257.1875
63.6,7600.6875,10256.6875
63.620000000000005,7600.1875,10255.75
63.64,7599.875,10255.4375
63.660000000000004,7599.9375,10255.0625
63.68,7599.5,10254.8125
63.7,7599.6875,10254.125
63.72,7599.625,10253.5625
63.74,7599.1875,10253.125
63.76,7598.8125,10252.9375
63.78,7598.875,10252.8125
63.800000000000004,7599.0625,10252.875
63.82,7599.375,10253.5
63.84,7599.5625,10253.6875
63.86,7599.9375,10253.75
63.88,7599.6875,10253.9375
63.9,7599.8125,10254.0625
63.92,7600.125,10254.3125
63.940000000000005,7600.0,10254.5625
63.96,7600.125,10254.8125
63.980000000000004,7600.1875,10255.125
64.0,7600.3125,10255.75
64.02,7600.5625,10255.6875
64.04,7600.25,10256.25
64.06,7600.75,10256.8125
64.08,7600.875,10257.0625
64.1,7601.0,10257.75
64.12,7601.0625,10257.8125
64.14,7601.125,10258.0
64.16,7601.1875,10258.5625
64.18,7601.25,10258.9375
64.2,7601.5625,10259.25
64.22,7601.375,10259.75
64.24,7601.625,10260.5625
64.26,7602.25,10260.9375
64.28,7602.0,10261.1875
64.3,7602.3125,10261.25
64.32000000000001,7602.3125,10262.25
64.34,7602.625,10262.625
64.36,7602.75,10263.25
64.38,7602.6875,10263.625
64.4,7602.9375,10264.125
64.42,7602.8125,10264.5
64.44,7603.125,10264.6875
64.46000000000001,7603.3125,10265.25
64.48,7603.5,10265.875
64.5,7603.8125,10266.625
64.52,7604.4375,10267.6875
64.54,7604.3125,10268.1875
64.56,7604.5625,10268.4375
64.58,7604.5,10268.1875
64.6,7604.875,10268.25
64.62,7604.5625,10268.125
64.64,7604.9375,10268.25
64.66,7605.0,10268.375
64.68,7605.3125,10268.3125
64.7,7605.375,10268.3125
64.72,7605.1875,10268.5
64.74,7604.75,10268.25
64.76,7605.0,10268.375
64.78,7604.6875,10268.125
64.8,7605.0625,10268.3125
64.82000000000001,7605.5625,10268.9375
64.84,7605.3125,10269.625
64.86,7605.6875,10269.6875
64.88,7605.5,10269.5625
64.9,7605.6875,10270.0
64.92,7605.75,10270.5625
64.94,7606.0,10270.3125
64.96000000000001,7605.5,10270.4375
64.98,7606.1875,10270.9375
65.0,7606.0,10270.8125
65.02,7606.125,10270.75
65.04,7606.375,10271.125
65.06,7606.0,10271.6875
65.08,7606.375,10271.5625
65.1,7606.3125,10272.0625
65.12,7605.8125,10271.9375
65.14,7606.125,10271.8125
65.16,7606.125,10272.0625
65.18,7606.375,10272.625
65.2,7606.375,10272.6875
65.22,7606.5625,10272.6875
65.24,7606.4375,10273.0625
65.26,7606.3125,10272.6875
65.28,7606.375,10273.3125
65.3,7606.4375,10273.625
65.32000000000001,7606.6875,10273.9375
65.34,7606.8125,10274.25
65.36,7606.9375,10274.3125
65.38,7606.875,10274.5625
65.4,7606.8125,10274.3125
65.42,7606.75,10274.125
65.44,7606.875,10275.125
65.46000000000001,7607.3125,10275.375
65.48,7607.125,10275.4375
65.5,7607.125,10275.1875
65.52,7606.9375,10274.9375
65.54,7606.6875,10274.25
65.56,7606.625,10273.9375
65.58,7606.875,10274.3125
65.6,7606.75,10273.8125
65.62,7606.375,10273.1875
65.64,7606.1875,10272.8125
65.66,7606.1875,10272.5625
65.68,7606.0,10272.5625
65.7,7606.0,10271.75
65.72,7605.625,10271.625
65.74,7605.625,10271.25
65.76,7605.5,10271.5625
65.78,7605.625,10271.375
65.8,7605.4375,10271.5
65.82000000000001,7605.4375,10271.375
65.84,7605.5,10271.375
65.86,7605.6875,10271.625
65.88,7605.5625,10271.25
65.9,7605.625,10271.125
65.92,7605.375,10271.875
65.94,7605.5625,10271.875
65.96000000000001,7605.5625,10272.0
65.98,7605.5,10272.0
66.0,7605.5,10272.0
66.02,7605.5625,10271.9375
66.04,7605.6875,10271.9375
66.06,7605.1875,10271.8125
66.08,7605.3125,10272.0625
66.1,7605.4375,10272.1875
66.12,7605.375,10272.1875
66.14,7605.5625,10272.5625
66.16,7605.5,10272.5
66.18,7605.4375,10272.875
66.2,7605.5,10272.875
66.22,7605.75,10272.9375
66.24,7605.5,10272.9375
66.26,7605.4375,10273.375
66.28,7605.5,10273.125
66.3,7605.6875,10273.3125
66.32000000000001,7605.4375,10273.5
66.34,7605.8125,10273.75
66.36,7605.9375,10274.25
66.38,7605.9375,10274.5
66.4,7605.75,10274.5625
66.42,7606.1875,10274.6875
66.44,7605.9375,10274.6875
66.46000000000001,7605.875,10274.4375
66.48,7606.0,10274.25
66.5,7605.875,10273.75
66.52,7605.625,10272.9375
66.54,7605.4375,10272.9375
66.56,7605.6875,10273.0
66.58,7605.5,10272.8125
66.6,7605.25,10271.9375
66.62,7605.25,10271.75
66.64,7605.0,10271.1875
66.66,7604.875,10271.125
66.68,7604.75,10270.8125
66.7,7604.875,10271.0625
66.72,7605.1875,10271.25
66.74,7604.625,10271.0625
66.76,7604.875,10271.125
66.78,7604.875,10271.0625
66.8,7604.5625,10271.0
66.82000000000001,7604.5,10271.1875
66.84,7604.875,10271.625
66.86,7604.625,10271.1875
66.88,7604.4375,10271.6875
66.9,7604.5625,10271.5
66.92,7604.5625,10271.875
66.94,7604.75,10271.875
66.96000000000001,7604.75,10271.5625
66.98,7604.5625,10271.625
67.0,7604.875,10271.75
67.02,7604.75,10271.8125
67.04,7604.5,10272.0625
67.06,7604.625,10272.0625
67.08,7604.5625,10272.125
67.1,7604.875,10272.5
67.12,7605.0,10273.1875
67.14,7604.625,10272.75
67.16,7604.8125,10272.8125
67.18,7605.0625,10273.125
67.2,7605.0,10272.8125
67.22,7604.8125,10273.25
67.24,7604.8125,10273.5
67.26,7604.8125,10273.875
67.28,7605.375,10273.875
67.3,7605.125,10274.0625
67.32000000000001,7605.25,10274.25
67.34,7605.1875,10274.5
67.36,7605.25,10274.25
67.38,7605.0625,10274.625
67.4,7605.625,10274.875
67.42,7605.3125,10275.6875
67.44,7605.625,10275.625
67.46000000000001,7605.6875,10276.0
67.48,7605.8125,10275.625
67.5,7605.375,10275.3125
67.52,7605.1875,10274.75
67.54,7604.875,10273.9375
67.56,7604.6875,10273.8125
67.58,7604.9375,10273.5625
67.6,7604.875,10272.9375
67.62,7604.625,10273.4375
67.64,7604.9375,10273.0625
67.66,7604.5625,10272.6875
67.68,7604.6875,10272.875
67.7,7604.4375,10273.1875
67.72,7604.875,10273.5625
67.74,7604.9375,10273.75
67.76,7604.6875,10274.125
67.78,7604.9375,10274.3125
67.8,7605.25,10274.9375
67.82000000000001,7605.0625,10275.125
67.84,7605.375,10275.375
67.86,7605.5,10275.6875
67.88,7605.8125,10275.875
67.9,7605.625,10276.4375
67.92,7605.625,10276.5
67.94,7605.75,10277.0
67.96000000000001,7605.9375,10277.375
67.98,7606.25,10277.4375
68.0,7606.625,10278.1875
68.02,7606.3125,10278.3125
68.04,7606.25,10278.6875
68.06,7606.625,10279.0
68.08,7606.5625,10279.4375
68.1,7606.875,10279.9375
68.12,7607.0625,10280.25
68.14,7606.9375,10280.5
68.16,7606.9375,10280.9375
68.18,7607.1875,10281.5625
68.2,7607.375,10282.0
68.22,7607.375,10282.4375
68.24,7607.5625,10282.75
68.26,7608.0,10283.125
68.28,7608.1875,10283.6875
68.3,7608.375,10284.0625
68.32000000000001,7608.125,10284.25
68.34,7608.25,10284.375
68.36,7608.5625,10285.1875
68.38,7608.625,10285.4375
68.4,7608.625,10286.5
68.42,7609.4375,10287.0625
68.44,7609.625,10288.0
68.46000000000001,7609.75,10287.8125
68.48,7610.0,10288.1875
68.5,7610.0625,10288.125
68.52,7609.3125,10288.25
68.54,7609.6875,10288.125
68.56,7609.8125,10288.3125
68.58,7609.875,10288.6875
68.60000000000001,7610.0625,10288.4375
68.62,7610.1875,10288.5
68.64,7610.1875,10288.75
68.66,7610.4375,10288.9375
68.68,7610.3125,10288.875
68.7,7610.125,10289.125
68.72,7610.5625,10289.5
68.74,7610.125,10289.6875
68.76,7610.6875,10290.25
68.78,7610.8125,10290.3125
68.8,7610.4375,10290.0
68.82000000000001,7610.4375,10290.375
68.84,7610.375,10290.25
68.86,7610.6875,10290.3125
68.88,7610.5625,10290.5
68.9,7610.5,10290.6875
68.92,7610.4375,10290.625
68.94,7610.5,10290.6875
68.96000000000001,7610.9375,10291.0
68.98,7610.75,10291.0625
69.0,7610.8125,10291.0625
69.02,7610.6875,10291.0
69.04,7611.0,10291.25
69.06,7610.625,10290.875
69.08,7610.9375,10291.1875
69.10000000000001,7610.9375,10291.625
69.12,7610.75,10291.375
69.14,7611.0,10291.125
69.16,7610.9375,10291.5625
69.18,7610.9375,10291.5625
69.2,7611.0,10291.6875
69.22,7610.6875,10291.5
69.24,7610.875,10291.75
69.26,7610.75,10291.6875
69.28,7610.875,10291.8125
69.3,7610.75,10291.8125
69.32000000000001,7610.8125,10292.0625
69.34,7610.5625,10292.25
69.36,7610.8125,10292.375
69.38,7610.6875,10292.0
69.4,7610.75,10292.0
69.42,7610.8125,10291.625
69.44,7610.375,10291.0
69.46000000000001,7610.0,10290.6875
69.48,7610.125,10290.0
69.5,7610.1875,10289.9375
69.52,7610.25,10289.9375
69.54,7610.4375,10289.625
69.56,7610.0,10289.1875
69.58,7609.625,10288.3125
69.60000000000001,7609.5625,10288.0
69.62,7609.25,10287.75
69.64,7609.25,10287.625
69.66,7609.1875,10287.6875
69.68,7609.3125,10287.625
69.7,7609.3125,10287.5625
69.72,7608.875,10287.1875
69.74,7608.9375,10286.6875
69.76,7608.6875,10286.25
69.78,7608.625,10286.5625
69.8,7608.6875,10286.3125
69.82000000000001,7608.5,10285.9375
69.84,7608.625,10286.0
69.86,7608.375,10286.0
69.88,7608.5,10285.875
69.9,7608.5625,10285.9375
69.92,7608.3125,10285.875
69.94,7608.375,10285.875
69.96000000000001,7608.4375,10286.0625
69.98,7608.375,10286.125
70.0,7608.0,10285.75
70.02,7607.9375,10285.5625
70.04,7607.875,10285.1875
70.06,7607.9375,10285.8125
70.08,7608.0,10285.75
70.10000000000001,7608.0,10285.625
70.12,7608.0,10286.0625
70.14,7608.25,10286.0625
70.16,7608.125,10286.3125
70.18,7608.4375,10286.4375
70.2,7608.3125,10286.6875
70.22,7608.4375,10286.625
70.24,7608.1875,10286.5625
70.26,7608.5625,10286.9375
70.28,7608.625,10287.625
70.3,7609.0625,10288.25
70.32000000000001,7609.125,10288.1875
70.34,7609.125,10287.5625
70.36,7608.6875,10287.1875
70.38,7608.25,10286.625
70.4,7608.6875,10286.5625
70.42,7608.5,10286.3125
70.44,7608.9375,10286.125
70.46000000000001,7608.5,10285.5625
70.48,7608.5,10284.875
70.5,7608.5625,10284.625
70.52,7607.875,10284.125
70.54,7607.8125,10283.625
70.56,7607.875,10283.5
70.58,7607.9375,10283.375
70.60000000000001,7607.875,10283.75
70.62,7608.1875,10284.125
70.64,7608.125,10284.4375
70.66,7608.0,10283.875
70.68,7607.9375,10283.875
70.7,7608.0,10284.125
70.72,7607.9375,10284.5
70.74,7608.25,10284.625
70.76,7608.3125,10284.8125
70.78,7608.5,10285.1875
70.8,7608.25,10285.5
70.82000000000001,7608.5,10285.625
70.84,7608.8125,10285.8125
70.86,7608.75,10286.375
70.88,7608.8125,10286.5625
70.9,7609.125,10286.6875
70.92,7609.25,10287.5625
70.94,7609.625,10288.0625
70.96000000000001,7609.625,10288.5625
70.98,7610.125,10289.1875
71.0,7610.375,10289.8125
71.02,7610.6875,10290.1875
71.04,7610.75,10290.875
71.06,7611.0625,10291.0625
71.08,7611.125,10291.625
71.10000000000001,7611.0,10292.0
71.12,7611.125,10292.1875
71.14,7611.1875,10292.6875
71.16,7611.0625,10293.3125
71.18,7611.9375,10294.0
71.2,7611.75,10293.9375
71.22,7612.125,10294.75
71.24,7612.5625,10295.5
71.26,7612.5,10296.0
71.28,7613.0,10296.875
71.3,7613.5625,10297.625
71.32000000000001,7613.8125,10298.25
71.34,7613.8125,10298.1875
71.36,7613.8125,10298.0625
71.38,7614.4375,10298.0625
71.4,7614.375,10298.1875
71.42,7614.1875,10297.4375
71.44,7614.0,10297.0625
71.46000000000001,7613.375,10296.0625
71.48,7613.0,10295.1875
71.5,7612.8125,10294.4375
71.52,7612.6875,10293.875
71.54,7611.875,10292.9375
71.56,7611.5625,10292.3125
71.58,7611.875,10292.0625
71.60000000000001,7611.875,10292.0
71.62,7612.25,10291.5
71.64,7612.0,10291.5
71.66,7612.1875,10291.1875
71.68,7612.3125,10290.75
71.7,7611.5625,10290.0625
71.72,7611.375,10289.8125
71.74,7612.0625,10290.1875
71.76,7612.125,10290.0
71.78,7611.6875,10289.125
71.8,7611.5625,10289.0625
71.82000000000001,7611.0,10288.6875
71.84,7611.0,10288.6875
71.86,7611.25,10288.8125
71.88,7611.1875,10288.5625
71.9,7611.1875,10288.625
71.92,7610.9375,10288.5
71.94,7610.6875,10288.25
71.96000000000001,7610.9375,10288.4375
71.98,7610.4375,10288.0625
72.0,7610.625,10288.625
72.02,7610.4375,10288.25
72.04,7610.3125,10288.0625
72.06,7610.25,10288.0625
72.08,7610.5625,10288.0
72.10000000000001,7610.1875,10287.9375
72.12,7610.125,10287.875
72.14,7610.0625,10287.5625
72.16,7610.125,10287.75
72.18,7610.1875,10287.625
72.2,7610.1875,10287.875
72.22,7610.125,10288.5
72.24,7610.1875,10289.0625
72.26,7610.0,10288.75
72.28,7609.75,10288.125
72.3,7609.8125,10287.75
72.32000000000001,7609.5625,10286.9375
72.34,7609.375,10286.5
72.36,7609.0625,10285.375
72.38,7608.9375,10285.125
72.4,7609.25,10285.25
72.42,7608.75,10284.9375
72.44,7608.4375,10283.9375
72.46000000000001,7608.4375,10283.6875
72.48,7607.875,10283.0
72.5,7608.125,10282.5
72.52,7608.125,10282.625
72.54,7608.0625,10282.1875
72.56,7607.9375,10282.375
72.58,7607.9375,10282.25
72.60000000000001,7607.9375,10282.0625
72.62,7608.0625,10282.0
72.64,7607.8125,10282.0625
72.66,7607.4375,10281.625
72.68,7607.375,10281.3125
72.7,7607.5625,10281.0
72.72,7607.25,10281.1875
72.74,7607.5625,10281.25
72.76,7607.25,10281.3125
72.78,7607.5625,10281.4375
72.8,7607.25,10281.5625
72.82000000000001,7607.125,10281.625
72.84,7606.875,10281.125
72.86,7607.5625,10281.5
72.88,7607.5,10281.25
72.9,7607.0,10281.5
72.92,7607.1875,10281.3125
72.94,7607.0625,10281.75
72.96000000000001,7607.5625,10282.25
72.98,7607.375,10283.3125
73.0,7607.9375,10284.0
73.02,7608.5625,10285.625
73.04,7609.0,10286.125
73.06,7609.0625,10286.4375
73.08,7609.375,10287.1875
73.10000000000001,7609.6875,10287.875
73.12,7610.25,10288.625
73.14,7609.875,10289.125
73.16,7610.1875,10289.6875
73.18,7610.125,10290.1875
73.2,7610.375,10290.875
73.22,7611.125,10292.0625
73.24,7611.3125,10292.5625
73.26,7611.375,10292.9375
73.28,7611.1875,10292.75
73.3,7611.4375,10292.875
73.32000000000001,7611.3125,10292.25
73.34,7611.3125,10292.875
73.36,7611.6875,10292.75
73.38,7611.625,10293.25
73.4,7611.875,10293.125
73.42,7612.0,10293.5
73.44,7611.8125,10293.5625
73.46000000000001,7611.875,10293.625
73.48,7612.0,10293.75
73.5,7612.125,10294.3125
73.52,7612.5625,10295.3125
73.54,7612.75,10295.4375
73.56,7612.5625,10295.9375
73.58,7612.9375,10296.0625
73.60000000000001,7612.9375,10296.125
73.62,7613.0,10296.5625
73.64,7613.625,10297.5625
73.66,7613.75,10298.0625
73.68,7614.0,10298.1875
73.7,7614.0625,10298.75
73.72,7614.3125,10299.25
73.74,7614.3125,10300.1875
73.76,7614.75,10300.4375
73.78,7614.375,10300.5625
73.8,7614.625,10301.125
73.82000000000001,7614.25,10300.9375
73.84,7614.75,10301.4375
73.86,7614.5,10301.125
73.88,7614.5625,10301.0625
73.9,7614.3125,10301.125
73.92,7614.5625,10301.6875
73.94,7614.875,10301.75
73.96000000000001,7614.5,10302.0625
73.98,7614.875,10302.3125
74.0,7614.9375,10302.4375
74.02,7614.5625,10302.75
74.04,7614.8125,10302.5625
74.06,7614.875,10303.0
74.08,7615.0,10303.1875
74.10000000000001,7615.0625,10303.4375
74.12,7615.25,10303.875
74.14,7615.4375,10303.75
74.16,7615.0625,10303.625
74.18,7614.6875,10303.0
74.2,7614.9375,10302.875
74.22,7614.6875,10302.6875
74.24,7614.875,10302.1875
74.26,7614.625,10301.75
74.28,7614.4375,10301.25
74.3,7614.1875,10300.9375
74.32000000000001,7614.4375,10301.125
74.34,7613.5625,10300.4375
74.36,7614.0625,10300.5625
74.38,7613.6875,10300.875
74.4,7613.9375,10300.8125
74.42,7614.25,10300.9375
74.44,7613.9375,10300.6875
74.46000000000001,7613.75,10300.375
74.48,7613.5625,10300.0625
74.5,7613.1875,10299.9375
74.52,7613.0625,10300.0625
74.54,7613.0625,10300.0625
74.56,7613.1875,10299.9375
74.58,7613.125,10300.3125
74.60000000000001,7613.1875,10300.75
74.62,7613.3125,10300.5
74.64,7613.0625,10300.0
74.66,7613.1875,10300.125
74.68,7612.5625,10300.0625
74.7,7613.0,10300.3125
74.72,7612.625,10300.5
74.74,7612.5625,10300.0
74.76,7612.875,10300.3125
74.78,7612.75,10300.875
74.8,7612.625,10300.875
74.82000000000001,7612.8125,10301.0
74.84,7612.75,10301.3125
74.86,7612.8125,10301.8125
74.88,7612.8125,10301.8125
74.9,7612.9375,10301.5
74.92,7612.6875,10301.875
74.94,7612.8125,10301.875
74.96000000000001,7612.75,10302.125
74.98,7612.9375,10301.9375
75.0,7612.75,10302.0
75.02,7613.0625,10302.1875
75.04,7613.125,10302.0625
75.06,7612.6875,10301.5
75.08,7612.3125,10301.3125
75.10000000000001,7612.5625,10301.125
75.12,7612.4375,10301.0
75.14,7612.375,10300.375
75.16,7612.0625,10299.6875
75.18,7611.9375,10299.5625
75.2,7611.8125,10299.25
75.22,7611.75,10299.4375
75.24,7611.625,10299.1875
75.26,7611.625,10299.3125
75.28,7612.0,10299.5
75.3,7611.75,10299.3125
75.32000000000001,7611.5625,10299.0625
75.34,7611.3125,10299.125
75.36,7611.0625,10298.4375
75.38,7610.8125,10298.8125
75.4,7611.125,10298.75
75.42,7611.0625,10298.8125
75.44,7611.375,10299.0
75.46000000000001,7610.9375,10298.5625
75.48,7610.9375,10298.6875
75.5,7611.0625,10298.6875
75.52,7610.75,10298.4375
75.54,7610.9375,10298.75
75.56,7610.9375,10298.5625
75.58,7610.875,10298.8125
75.60000000000001,7611.0625,10298.6875
75.62,7610.875,10298.9375
75.64,7610.75,10299.0
75.66,7610.6875,10298.625
75.68,7610.8125,10299.25
75.7,7611.0625,10299.25
75.72,7611.1875,10299.5
75.74,7611.0,10299.375
75.76,7610.875,10299.5
75.78,7610.6875,10299.6875
75.8,7610.5625,10299.8125
75.82000000000001,7610.75,10300.25
75.84,7610.875,10300.4375
75.86,7611.25,10301.1875
75.88,7611.4375,10301.0
75.9,7610.875,10301.0
75.92,7610.75,10300.125
75.94,7610.375,10299.75
75.96000000000001,7610.3125,10299.4375
75.98,7610.9375,10299.625
76.0,7610.75,10299.75
76.02,7610.5,10299.75
76.04,7610.625,10299.0625
76.06,7610.3125,10299.0
76.08,7610.0,10298.5
76.10000000000001,7609.9375,10298.8125
76.12,7610.1875,10299.0
76.14,7610.3125,10299.0625
76.16,7610.25,10299.125
76.18,7610.125,10299.0
76.2,7610.0,10298.75
76.22,7609.5625,10298.375
76.24,7609.75,10298.3125
76.26,7609.875,10298.3125
76.28,7609.4375,10298.8125
76.3,7609.5625,10299.0625
76.32000000000001,7609.6875,10299.25
76.34,7610.125,10299.8125
76.36,7610.25,10299.875
76.38,7610.4375,10300.6875
76.4,7610.4375,10300.625
76.42,7610.5625,10300.875
76.44,7610.5,10301.375
76.46000000000001,7611.0,10302.0625
76.48,7610.9375,10302.1875
76.5,7611.125,10302.9375
76.52,7611.5625,10304.3125
76.54,7611.5625,10303.875
76.56,7611.625,10304.0
76.58,7611.5625,10304.75
76.60000000000001,7611.875,10305.3125
76.62,7612.375,10305.75
76.64,7611.9375,10306.0
76.66,7612.0625,10306.5
76.68,7612.5,10307.125
76.7,7612.4375,10307.75
76.72,7612.8125,10308.1875
76.74,7612.9375,10308.875
76.76,7613.0625,10309.25
76.78,7613.125,10309.5625
76.8,7612.875,10309.6875
76.82000000000001,7613.3125,10309.8125
76.84,7613.25,10310.0
76.86,7613.625,10310.3125
76.88,7613.6875,10310.25
76.9,7614.125,10310.6875
76.92,7613.75,10310.5625
76.94,7614.125,10310.5625
76.96000000000001,7614.125,10310.375
76.98,7614.0625,10310.6875
77.0,7613.9375,10310.75
77.02,7613.9375,10310.5625
77.04,7614.0,10310.875
77.06,7613.8125,10311.125
77.08,7614.4375,10311.375
77.10000000000001,7614.375,10311.4375
77.12,7614.375,10311.875
77.14,7614.375,10312.0
77.16,7614.4375,10312.3125
77.18,7614.3125,10312.25
77.2,7614.75,10312.4375
77.22,7614.4375,10312.8125
77.24,7614.9375,10312.875
77.26,7614.4375,10313.25
77.28,7614.6875,10313.5
77.3,7614.5625,10312.9375
77.32000000000001,7614.25,10312.875
77.34,7614.4375,10313.375
77.36,7614.3125,10312.875
77.38,7614.3125,10313.0
77.4,7614.25,10313.125
77.42,7614.3125,10313.0625
77.44,7614.5625,10313.3125
77.46000000000001,7614.3125,10313.375
77.48,7613.75,10313.125
77.5,7613.75,10313.125
77.52,7614.0,10313.1875
77.54,7614.125,10313.0
77.56,7613.9375,10313.25
77.58,7614.125,10313.375
77.60000000000001,7614.0,10313.5625
77.62,7614.0,10313.9375
77.64,7614.3125,10314.1875
77.66,7614.1875,10314.0
77.68,7614.25,10313.4375
77.7,7613.6875,10313.25
77.72,7613.625,10312.4375
77.74,7613.375,10312.25
77.76,7613.4375,10311.875
77.78,7613.375,10311.625
77.8,7613.375,10311.0625
77.82000000000001,7613.1875,10310.5625
77.84,7612.75,10310.5
77.86,7613.0,10310.0625
77.88,7612.6875,10309.375
77.9,7612.3125,10309.0625
77.92,7612.4375,10309.0
77.94,7612.4375,10309.0625
77.96000000000001,7612.0625,10309.0625
77.98,7612.4375,10308.625
78.0,7611.6875,10308.625
78.02,7611.75,10308.0
78.04,7612.125,10308.0
78.06,7611.9375,10308.1875
78.08,7611.625,10308.375
78.10000000000001,7611.4375,10308.375
78.12,7611.6875,10308.25
78.14,7611.5,10307.875
78.16,7611.5625,10307.9375
78.18,7611.4375,10308.125
78.2,7611.1875,10307.9375
78.22,7611.75,10307.8125
78.24,7611.25,10308.125
78.26,7611.3125,10307.8125
78.28,7611.0,10308.0625
78.3,7611.125,10308.0
78.32000000000001,7611.0625,10308.0
78.34,7611.125,10307.6875
78.36,7611.25,10308.0625
78.38,7610.9375,10307.75
78.4,7611.1875,10307.625
78.42,7610.9375,10307.9375
78.44,7611.125,10307.875
78.46000000000001,7610.875,10308.1875
78.48,7611.1875,10308.4375
78.5,7611.0625,10308.3125
78.52,7611.125,10308.9375
78.54,7611.25,10309.3125
78.56,7611.125,10309.4375
78.58,7611.4375,10309.625
78.60000000000001,7611.0,10309.0
78.62,7610.9375,10308.5625
78.64,7610.6875,10307.6875
78.66,7610.5625,10307.0625
78.68,7610.1875,10306.5625
78.7,7610.3125,10306.25
78.72,7610.375,10306.0625
78.74,7610.25,10305.75
78.76,7610.0625,10305.3125
78.78,7609.75,10304.8125
78.8,7609.5,10304.5
78.82000000000001,7609.4375,10304.1875
78.84,7609.3125,10304.0
78.86,7609.3125,10304.0625
78.88,7609.4375,10304.125
78.9,7609.125,10303.6875
78.92,7609.25,10303.875
78.94,7609.0,10303.4375
78.96000000000001,7608.875,10303.3125
78.98,7609.375,10303.0
79.0,7609.25,10303.125
79.02,7608.9375,10303.1875
79.04,7609.125,10302.9375
79.06,7608.875,10302.8125
79.08,7608.9375,10303.1875
79.10000000000001,7609.0,10303.375
79.12,7609.25,10303.625
79.14,7608.875,10303.3125
79.16,7609.125,10303.375
79.18,7608.8125,10303.1875
79.2,7608.9375,10303.1875
79.22,7609.125,10303.125
79.24,7609.25,10303.8125
79.26,7609.0625,10303.375
79.28,7609.0625,10303.8125
79.3,7608.9375,10303.6875
79.32000000000001,7609.0625,10303.8125
79.34,7609.3125,10303.9375
79.36,7609.1875,10303.75
79.38,7609.5625,10304.3125
79.4,7609.25,10304.625
79.42,7609.1875,10304.1875
79.44,7609.3125,10304.5
79.46000000000001,7609.1875,10304.5625
79.48,7609.375,10305.4375
79.5,7609.25,10305.0625
79.52,7609.5625,10305.5625
79.54,7609.25,10305.5
79.56,7609.75,10305.4375
79.58,7609.75,10305.1875
79.60000000000001,7609.3125,10304.0
79.62,7609.0625,10303.375
79.64,7608.4375,10302.875
79.66,7608.4375,10302.6875
79.68,7608.375,10301.9375
79.7,7608.0,10301.6875
79.72,7607.75,10301.375
79.74,7607.5,10300.625
79.76,7607.5,10300.4375
79.78,7607.5625,10300.1875
79.8,7607.3125,10299.75
79.82000000000001,7607.375,10299.75
79.84,7607.4375,10299.5
79.86,7607.1875,10299.6875
79.88,7607.1875,10299.5
79.9,7607.1875,10299.4375
79.92,7607.3125,10299.5
79.94,7607.4375,10299.625
79.96000000000001,7607.625,10299.625
79.98,7607.25,10299.4375
80.0,7607.4375,10299.875
80.02,7607.625,10299.6875
80.04,7607.125,10299.8125
80.06,7607.6875,10299.875
80.08,7607.875,10300.25
80.10000000000001,7607.5625,10300.125
80.12,7607.5,10300.25
80.14,7607.375,10299.875
80.16,7607.6875,10300.5
80.18,7607.5625,10300.3125
80.2,7607.8125,10300.8125
80.22,7607.6875,10300.75
80.24,7607.875,10300.8125
80.26,7607.75,10300.625
80.28,7607.6875,10300.75
80.3,7607.5625,10300.875
80.32000000000001,7607.875,10301.25
80.34,7607.8125,10301.625
80.36,7608.0,10301.6875
80.38,7608.0625,10302.0625
80.4,7607.8125,10301.875
80.42,7607.9375,10301.875
80.44,7607.75,10301.875
80.46000000000001,7607.9375,10302.375
80.48,7607.9375,10303.0625
80.5,7608.1875,10303.25
80.52,7608.4375,10303.6875
80.54,7608.5625,10303.3125
80.56,7608.125,10302.625
80.58,7607.6875,10302.0625
80.60000000000001,7607.5,10301.25
80.62,7607.6875,10301.125
80.64,7607.75,10301.0625
80.66,7607.6875,10300.9375
80.68,7607.5625,10300.25
80.7,7607.625,10300.25
80.72,7607.25,10300.1875
80.74,7607.5,10300.3125
80.76,7607.4375,10300.0
80.78,7607.375,10299.75
80.8,7607.3125,10300.375
80.82000000000001,7607.4375,10300.5
80.84,7607.3125,10300.6875
80.86,7607.9375,10300.9375
80.88,7607.5625,10301.0625
80.9,7607.875,10301.4375
80.92,7607.75,10301.5
80.94,7608.0625,10302.125
80.96000000000001,7608.0,10302.4375
80.98,7608.0625,10302.5
81.0,7608.375,10303.125
81.02,7608.8125,10303.5625
81.04,7608.25,10304.0
81.06,7608.6875,10304.375
81.08,7608.8125,10304.9375
81.10000000000001,7608.875,10305.25
81.12,7609.3125,10305.5
81.14,7608.875,10305.5625
81.16,7609.0625,10306.1875
81.18,7609.25,10307.0
81.2,7609.25,10307.0
81.22,7609.75,10307.8125
81.24,7609.5625,10308.0
81.26,7610.1875,10308.625
81.28,7610.125,10309.125
81.3,7610.4375,10309.6875
81.32000000000001,7610.5,10310.4375
81.34,7610.875,10311.3125
81.36,7611.0625,10311.625
81.38,7611.1875,10312.0625
81.4,7611.1875,10312.6875
81.42,7611.1875,10313.125
81.44,7611.6875,10313.6875
81.46000000000001,7612.1875,10313.9375
81.48,7612.125,10314.6875
81.5,7612.125,10315.0625
81.52,7612.375,10315.25
81.54,7612.75,10315.1875
81.56,7612.75,10315.25
81.58,7612.9375,10315.625
81.60000000000001,7613.0625,10315.9375
81.62,7612.875,10316.0625
81.64,7612.9375,10315.9375
81.66,7612.8125,10315.375
81.68,7612.4375,10315.375
81.7,7612.8125,10315.125
81.72,7612.625,10315.5
81.74,7612.625,10315.5625
81.76,7612.6875,10315.4375
81.78,7612.6875,10315.1875
81.8,7612.5,10315.0
81.82000000000001,7612.375,10315.0
81.84,7612.5,10315.125
81.86,7612.25,10315.375
81.88,7612.375,10314.875
81.9,7612.375,10315.0625
81.92,7612.1875,10315.0625
81.94,7612.3125,10314.8125
81.96000000000001,7612.25,10314.9375
81.98,7612.375,10315.3125
82.0,7612.0625,10315.0625
82.02,7612.1875,10315.25
82.04,7612.25,10315.25
82.06,7612.3125,10315.1875
82.08,7612.4375,10315.375
82.10000000000001,7612.25,10315.5
82.12,7612.5625,10315.25
82.14,7612.5625,10315.8125
82.16,7612.4375,10315.5625
82.18,7612.1875,10315.5625
82.2,7612.1875,10315.6875
82.22,7612.125,10315.6875
82.24,7612.375,10315.875
82.26,7612.4375,10315.6875
82.28,7612.1875,10315.75
82.3,7612.4375,10316.5625
82.32000000000001,7612.375,10316.6875
82.34,7612.125,10316.75
82.36,7612.4375,10316.5
82.38,7612.5625,10316.5
82.4,7612.4375,10316.375
82.42,7612.0,10315.5
82.44,7611.8125,10314.8125
82.46000000000001,7611.875,10314.375
82.48,7611.625,10314.25
82.5,7611.5625,10313.875
82.52,7611.25,10313.0625
82.54,7611.0,10312.8125
82.56,7610.875,10312.5
82.58,7610.75,10312.6875
82.60000000000001,7611.0,10312.625
82.62,7610.875,10312.875
82.64,7611.1875,10312.9375
82.66,7610.8125,10312.75
82.68,7611.125,10313.0
82.7,7611.25,10313.3125
82.72,7610.875,10313.125
82.74,7610.9375,10312.9375
82.76,7610.8125,10312.9375
82.78,7611.0,10313.25
82.8,7611.0625,10313.5
82.82000000000001,7611.25,10313.5625
82.84,7610.875,10313.875
82.86,7611.0,10313.6875
82.88,7611.0625,10313.8125
82.9,7611.1875,10313.875
82.92,7611.0625,10314.3125
82.94,7610.875,10313.75
82.96000000000001,7611.25,10314.375
82.98,7611.125,10314.375
83.0,7611.125,10314.5
83.02,7610.9375,10314.5625
83.04,7611.1875,10314.5
83.06,7610.8125,10314.8125
83.08,7610.875,10315.0625
83.10000000000001,7610.6875,10315.1875
83.12,7611.0,10315.5
83.14,7610.9375,10315.125
83.16,7611.375,10315.375
83.18,7610.9375,10315.6875
83.2,7610.75,10315.625
83.22,7611.25,10316.0
83.24,7611.4375,10316.625
83.26,7611.5625,10317.1875
83.28,7611.5625,10317.375
83.3,7611.4375,10316.875
83.32000000000001,7610.875,10316.5
83.34,7611.0625,10316.0625
83.36,7611.1875,10315.75
83.38,7610.9375,10315.5
83.4,7611.125,10315.6875
83.42,7611.125,10315.375
83.44,7611.0,10315.0
83.46000000000001,7610.3125,10314.625
83.48,7610.375,10314.1875
83.5,7610.0,10313.625
83.52,7609.875,10314.0
83.54,7610.1875,10313.5
83.56,7610.3125,10314.25
83.58,7609.9375,10313.875
83.60000000000001,7610.4375,10313.8125
83.62,7609.8125,10313.4375
83.64,7610.0,10313.1875
83.66,7609.6875,10313.375
83.68,7609.9375,10313.375
83.7,7609.4375,10312.8125
83.72,7609.1875,10312.875
83.74,7609.25,10312.9375
83.76,7609.0625,10312.375
83.78,7609.125,10312.6875
83.8,7609.4375,10312.8125
83.82000000000001,7608.9375,10312.625
83.84,7609.5625,10312.75
83.86,7608.6875,10312.8125
83.88,7608.75,10313.375
83.9,7608.8125,10313.375
83.92,7609.25,10313.3125
83.94,7608.9375,10313.25
83.96000000000001,7608.8125,10313.375
83.98,7608.875,10313.5625
84.0,7608.9375,10313.5625
84.02,7609.0625,10314.0
84.04,7608.875,10313.875
84.06,7608.875,10313.9375
84.08,7608.75,10314.0
84.10000000000001,7608.6875,10314.125
84.12,7608.625,10313.6875
84.14,7608.8125,10314.0
84.16,7608.875,10314.8125
84.18,7609.4375,10315.1875
84.2,7609.5625,10316.25
84.22,7609.625,10316.6875
84.24,7609.8125,10317.125
84.26,7610.0625,10317.4375
84.28,7610.1875,10317.625
84.3,7610.3125,10317.4375
84.32000000000001,7610.375,10317.75
84.34,7610.4375,10317.4375
84.36,7610.1875,10317.5
84.38,7610.25,10317.1875
84.4,7610.25,10317.25
84.42,7610.375,10317.375
84.44,7610.5,10317.375
84.46000000000001,7610.0625,10316.8125
84.48,7610.0,10317.0625
84.5,7609.6875,10317.1875
84.52,7610.125,10317.5625
84.54,7610.375,10318.0625
84.56,7610.1875,10318.25
84.58,7610.25,10318.375
84.60000000000001,7610.375,10318.75
84.62,7610.5,10319.0625
84.64,7610.8125,10319.5
84.66,7610.875,10319.5625
84.68,7610.75,10319.8125
84.7,7611.125,10320.125
84.72,7611.375,10320.6875
84.74,7611.0,10320.8125
84.76,7611.0,10320.8125
84.78,7611.125,10321.125
84.8,7611.0625,10321.3125
84.82000000000001,7611.4375,10321.5625
84.84,7611.3125,10322.3125
84.86,7611.6875,10322.6875
84.88,7611.9375,10323.125
84.9,7611.8125,10323.5
84.92,7611.9375,10323.4375
84.94,7612.375,10324.25
84.96000000000001,7612.5,10324.5
84.98,7612.4375,10325.0625
85.0,7612.3125,10325.5625
85.02,7612.75,10325.9375
85.04,7612.625,10326.0625
85.06,7613.0625,10326.75
85.08,7613.1875,10326.9375
85.10000000000001,7613.0,10327.4375
85.12,7613.5,10328.25
85.14,7613.5,10328.3125
85.16,7613.4375,10329.125
85.18,7613.625,10329.5
85.2,7613.875,10329.1875
85.22,7613.875,10329.625
85.24,7613.9375,10329.5
85.26,7614.125,10329.625
85.28,7614.0625,10329.5625
85.3,7614.0625,10329.375
85.32000000000001,7613.875,10329.3125
85.34,7613.875,10329.125
85.36,7613.6875,10328.5
85.38,7613.625,10328.5625
85.4,7613.75,10328.5625
85.42,7613.75,10328.4375
85.44,7613.75,10328.1875
85.46000000000001,7613.5,10328.75
85.48,7613.4375,10328.0625
85.5,7613.1875,10328.1875
85.52,7613.25,10328.25
85.54,7613.0625,10327.625
85.56,7613.0,10327.8125
85.58,7613.375,10327.75
85.60000000000001,7613.4375,10327.9375
85.62,7613.0625,10327.9375
85.64,7613.125,10328.0
85.66,7612.9375,10327.75
85.68,7612.875,10327.625
85.7,7613.125,10327.625
85.72,7613.0625,10328.125
85.74,7613.375,10327.75
85.76,7613.125,10327.9375
85.78,7613.1875,10327.75
85.8,7613.4375,10328.0625
85.82000000000001,7613.25,10327.875
85.84,7613.1875,10327.75
85.86,7613.0,10327.75
85.88,7613.1875,10328.1875
85.9,7613.0625,10328.1875
85.92,7613.4375,10328.375
85.94,7613.0,10328.0
85.96000000000001,7612.5625,10328.125
85.98,7612.6875,10328.1875
86.0,7612.6875,10328.5625
86.02,7612.6875,10328.8125
86.04,7613.1875,10329.0625
86.06,7613.0,10328.875
86.08,7613.0,10328.3125
86.10000000000001,7612.5625,10328.1875
86.12,7612.8125,10327.625
86.14,7613.0,10327.5
86.16,7612.6875,10327.5
86.18,7612.625,10327.5625
86.2,7612.8125,10326.75
86.22,7612.25,10326.5
86.24,7612.25,10326.1875
86.26,7612.125,10326.0
86.28,7611.625,10325.875
86.3,7611.8125,10325.625
86.32000000000001,7612.0,10326.125
86.34,7612.4375,10326.3125
86.36,7612.3125,10326.4375
86.38,7611.5,10326.0625
86.4,7611.6875,10325.8125
86.42,7611.5,10325.8125
86.44,7611.8125,10325.875
86.46000000000001,7611.3125,10325.5
86.48,7611.375,10325.375
86.5,7611.4375,10325.375
86.52,7611.125,10325.3125
86.54,7611.25,10325.5
86.56,7611.5625,10325.5625
86.58,7611.0625,10325.5
86.60000000000001,7611.3125,10325.875
86.62,7611.25,10325.8125
86.64,7611.3125,10326.0
86.66,7611.625,10326.375
86.68,7611.5625,10326.625
86.7,7611.4375,10326.6875
86.72,7611.5625,10326.6875
86.74,7611.5625,10326.3125
86.76,7611.8125,10326.875
86.78,7611.5625,10326.75
86.8,7611.875,10326.875
86.82000000000001,7611.0625,10326.5
86.84,7610.8125,10326.25
86.86,7610.4375,10326.3125
86.88,7610.4375,10326.375
86.9,7610.875,10326.3125
86.92,7610.25,10326.4375
86.94,7610.75,10326.8125
86.96000000000001,7610.625,10327.0625
86.98,7610.625,10327.3125
87.0,7611.5,10328.4375
87.02,7611.375,10327.75
87.04,7611.75,10327.75
87.06,7611.375,10326.8125
87.08,7611.0625,10326.5
87.10000000000001,7611.0625,10326.25
87.12,7611.0625,10325.6875
87.14,7610.9375,10325.8125
87.16,7610.375,10325.0625
87.18,7610.5,10324.9375
87.2,7610.25,10324.75
87.22,7610.0625,10323.8125
87.24,7609.8125,10323.875
87.26,7609.625,10323.5625
87.28,7609.8125,10323.875
87.3,7610.0,10323.8125
87.32000000000001,7609.5,10323.6875
87.34,7609.5,10323.0625
87.36,7609.3125,10322.8125
87.38,7608.8125,10323.0
87.4,7609.0,10322.75
87.42,7609.375,10322.9375
87.44,7609.0,10322.75
87.46000000000001,7609.0625,10322.5
87.48,7609.0,10322.75
87.5,7609.0,10322.5625
87.52,7608.875,10322.5
87.54,7608.75,10322.625
87.56,7608.75,10322.3125
87.58,7608.8125,10322.875
87.60000000000001,7608.8125,10322.8125
87.62,7608.875,10322.9375
87.64,7609.0,10322.75
87.66,7608.9375,10323.125
87.68,7608.8125,10323.1875
87.7,7609.0,10324.0
87.72,7609.125,10323.875
87.74,7609.1875,10324.4375
87.76,7609.375,10324.5625
87.78,7609.4375,10324.8125
87.8,7609.5625,10325.375
87.82000000000001,7609.875,10325.875
87.84,7609.6875,10326.25
87.86,7610.125,10326.875
87.88,7610.1875,10327.0
87.9,7610.0625,10327.625
87.92,7610.3125,10328.0
87.94,7610.1875,10328.25
87.96000000000001,7610.5625,10328.8125
87.98,7610.8125,10329.875
88.0,7611.4375,10330.375
88.02,7611.0625,10330.375
88.04,7611.25,10329.875
88.06,7610.9375,10329.8125
88.08,7611.4375,10329.6875
88.10000000000001,7611.375,10330.0625
88.12,7611.625,10330.4375
88.14,7611.3125,10329.8125
88.16,7611.125,10329.8125
88.18,7611.125,10329.6875
88.2,7611.375,10329.9375
88.22,7611.375,10329.875
88.24,7611.125,10329.9375
88.26,7611.25,10330.375
88.28,7611.4375,10330.625
88.3,7611.3125,10330.1875
88.32000000000001,7611.4375,10330.875
88.34,7611.6875,10330.8125
88.36,7611.6875,10331.3125
88.38,7611.875,10331.625
88.4,7611.8125,10331.625
88.42,7611.875,10332.25
88.44,7612.1875,10332.4375
88.46000000000001,7612.125,10332.8125
88.48,7612.1875,10332.875
88.5,7612.5,10333.1875
88.52,7612.75,10333.75
88.54,7612.3125,10333.8125
88.56,7612.75,10334.125
88.58,7612.5,10334.5
88.60000000000001,7613.0,10334.875
88.62,7613.0625,10335.5625
88.64,7613.1875,10335.625
88.66,7613.3125,10336.125
88.68,7613.25,10336.5625
88.7,7613.1875,10336.5
88.72,7613.8125,10337.0625
88.74,7613.625,10337.1875
88.76,7613.5625,10337.1875
88.78,7613.625,10337.125
88.8,7613.3125,10337.0625
88.82000000000001,7613.5625,10337.1875
88.84,7613.625,10337.4375
88.86,7613.0,10337.375
88.88,7613.3125,10337.5
88.9,7613.5,10337.4375
88.92,7613.4375,10337.0
88.94,7613.8125,10336.5
88.96000000000001,7613.4375,10336.4375
88.98,7613.25,10335.5625
89.0,7613.3125,10335.9375
89.02,7612.9375,10335.3125
89.04,7612.8125,10335.1875
89.06,7612.375,10334.3125
89.08,7612.3125,10333.6875
89.10000000000001,7612.0625,10333.0
89.12,7612.0,10332.5625
89.14,7611.875,10332.5
89.16,7611.6875,10332.3125
89.18,7611.75,10332.1875
89.2,7611.5,10331.9375
89.22,7611.3125,10331.3125
89.24,7611.25,10330.8125
89.26,7611.125,10330.8125
89.28,7611.125,10330.8125
89.3,7610.9375,10330.5
89.32000000000001,7610.8125,10330.6875
89.34,7610.6875,10330.125
89.36,7610.75,10329.6875
89.38,7610.25,10329.875
89.4,7610.5625,10330.0
89.42,7610.3125,10329.4375
89.44,7610.3125,10329.4375
89.46000000000001,7610.1875,10329.4375
89.48,7609.8125,10329.0
89.5,7609.9375,10328.9375
89.52,7609.9375,10329.0625
89.54,7609.625,10328.75
89.56,7609.4375,10328.3125
89.58,7609.4375,10328.75
89.60000000000001,7609.5,10328.4375
89.62,7609.75,10328.8125
89.64,7609.6875,10328.8125
89.66,7609.5625,10328.8125
89.68,7609.3125,10328.375
89.7,7609.5625,10328.5
89.72,7609.4375,10328.625
89.74,7609.5625,10329.5
89.76,7609.875,10329.8125
89.78,7609.875,10329.3125
89.8,7609.6875,10329.0
89.82000000000001,7609.4375,10328.375
89.84,7609.0,10327.625
89.86,7608.875,10327.375
89.88,7608.875,10326.9375
89.9,7608.6875,10326.5625
89.92,7608.9375,10326.5625
89.94,7608.3125,10326.0
89.96000000000001,7608.0625,10325.375
89.98,7607.875,10324.625
90.0,7607.5625,10324.3125
90.02,7607.25,10323.8125
90.04,7607.4375,10323.9375
90.06,7607.375,10323.8125
90.08,7607.3125,10323.5
90.10000000000001,7606.9375,10322.9375
90.12,7606.9375,10322.875
90.14,7606.5625,10322.5625
90.16,7606.75,10322.625
90.18,7606.6875,10322.5
90.2,7606.5,10322.25
90.22,7606.6875,10322.0
90.24,7606.3125,10321.8125
90.26,7606.25,10322.0
90.28,7606.25,10321.3125
90.3,7606.1875,10321.5
90.32000000000001,7606.0625,10321.625
90.34,7605.9375,10321.3125
90.36,7606.125,10322.0625
90.38,7606.4375,10321.75
90.4,7606.5,10322.1875
90.42,7606.375,10322.25
90.44,7606.75,10323.0625
90.46000000000001,7607.0625,10323.25
90.48,7607.1875,10323.9375
90.5,7607.4375,10324.125
90.52,7607.625,10324.375
90.54,7607.5,10324.6875
90.56,7607.4375,10325.375
90.58,7607.875,10326.0
90.60000000000001,7608.125,10326.4375
90.62,7608.125,10327.0625
90.64,7608.6875,10327.75
90.66,7608.8125,10328.3125
90.68,7609.375,10329.3125
90.7,7609.0,10329.375
90.72,7609.1875,10329.4375
90.74,7609.3125,10329.4375
90.76,7609.25,10329.1875
90.78,7609.625,10329.5
90.8,7610.0625,10329.9375
90.82000000000001,7610.0625,10330.25
90.84,7609.875,10329.9375
90.86,7610.0625,10329.875
90.88,7610.0625,10330.0625
90.9,7609.625,10329.625
90.92,7609.875,10329.9375
90.94,7609.875,10330.25
90.96000000000001,7610.25,10330.5
90.98,7610.25,10330.5625
