0.0,7506.1875,9925.5
0.02,7506.3125,9925.3125
0.04,7506.625,9925.4375
0.06,7507.0625,9926.5
0.08,7507.4375,9928.0
0.1,7507.25,9929.1875
0.12,7507.3125,9930.4375
0.14,7507.4375,9931.25
0.16,7507.25,9932.5
0.18,7507.125,9933.375
0.2,7507.25,9934.0625
0.22,7507.4375,9935.0
0.24,7507.8125,9936.8125
0.26,7507.75,9937.5625
0.28,7508.1875,9938.625
0.3,7507.9375,9939.1875
0.32,7507.9375,9940.25
0.34,7507.8125,9940.75
0.36,7507.75,9941.5625
0.38,7508.3125,9942.4375
0.4,7508.25,9943.5625
0.42,7508.6875,9944.4375
0.44,7508.625,9944.875
0.46,7508.5625,9946.125
0.48,7507.9375,9946.75
0.5,7508.375,9947.5625
0.52,7508.8125,9948.75
0.54,7508.875,9949.875
0.56,7508.875,9950.875
0.58,7508.75,9951.25
0.6,7509.0625,9951.25
0.62,7508.9375,9951.4375
0.64,7508.5,9950.75
0.66,7508.4375,9951.375
0.68,7507.75,9951.125
0.7000000000000001,7507.6875,9951.125
0.72,7507.25,9951.5
0.74,7506.5,9951.0
0.76,7506.6875,9951.375
0.78,7506.5,9951.5625
0.8,7506.0625,9952.0625
0.8200000000000001,7506.0,9952.5625
0.84,7505.8125,9953.0
0.86,7505.8125,9953.125
0.88,7505.875,9954.1875
0.9,7506.0,9954.375
0.92,7506.125,9955.125
0.9400000000000001,7505.75,9955.6875
0.96,7506.125,9956.5625
0.98,7506.4375,9958.1875
1.0,7506.625,9959.75
1.02,7506.875,9960.5625
1.04,7507.125,9962.1875
1.06,7507.9375,9963.25
1.08,7508.125,9964.625
1.1,7508.5625,9966.1875
1.12,7509.1875,9967.8125
1.1400000000000001,7509.4375,9969.375
1.16,7509.8125,9971.125
1.18,7510.125,9972.75
1.2,7510.875,9974.0625
1.22,7511.625,9975.4375
1.24,7512.1875,9977.1875
1.26,7512.75,9978.5625
1.28,7513.25,9980.0625
1.3,7513.5,9981.875
1.32,7514.125,9983.3125
1.34,7514.4375,9984.9375
1.36,7514.9375,9986.6875
1.3800000000000001,7515.3125,9988.375
1.4000000000000001,7515.3125,9989.3125
1.42,7516.125,9990.6875
1.44,7516.875,9992.25
1.46,7517.0,9993.3125
1.48,7517.25,9993.4375
1.5,7517.6875,9994.875
1.52,7518.125,9995.125
1.54,7518.4375,9996.5
1.56,7518.6875,9996.9375
1.58,7518.875,9997.5
1.6,7519.5625,9998.25
1.62,7519.6875,9999.1875
1.6400000000000001,7520.125,10000.4375
1.6600000000000001,7520.6875,10001.3125
1.68,7520.9375,10002.4375
1.7,7521.625,10003.4375
1.72,7521.8125,10004.625
1.74,7522.0625,10005.8125
1.76,7522.0625,10006.875
1.78,7522.25,10007.5
1.8,7522.4375,10007.75
1.82,7522.6875,10009.0
1.84,7523.25,10010.6875
1.86,7523.25,10012.25
1.8800000000000001,7523.5625,10013.0
1.9000000000000001,7523.5,10013.6875
1.92,7523.4375,10014.625
1.94,7523.25,10014.9375
1.96,7523.5,10015.75
1.98,7523.5,10016.1875
2.0,7523.1875,10017.375
2.02,7523.375,10018.375
2.04,7522.875,10018.375
2.06,7522.875,10018.5
2.08,7522.6875,10018.8125
2.1,7522.9375,10019.0625
2.12,7522.625,10018.375
2.14,7522.75,10018.375
2.16,7522.125,10017.9375
2.18,7522.25,10018.125
2.2,7522.3125,10017.4375
2.22,7521.625,10015.9375
2.24,7520.875,10015.0625
2.2600000000000002,7520.9375,10014.9375
2.2800000000000002,7520.5625,10014.125
2.3000000000000003,7520.5,10013.6875
2.32,7519.6875,10013.75
2.34,7519.8125,10013.125
2.36,7519.0625,10013.25
2.38,7519.0625,10013.5625
2.4,7518.5625,10014.4375
2.42,7518.125,10014.125
2.44,7517.5625,10014.625
2.46,7517.4375,10015.1875
2.48,7517.0625,10014.875
2.5,7516.625,10014.0
2.52,7515.75,10013.3125
2.54,7515.25,10013.125
2.56,7515.375,10013.5625
2.58,7514.5,10013.75
2.6,7514.375,10013.8125
2.62,7513.375,10012.9375
2.64,7512.625,10012.5625
2.66,7512.25,10013.4375
2.68,7511.75,10013.3125
2.7,7511.1875,10013.1875
2.72,7510.625,10013.625
2.74,7510.0,10014.1875
2.7600000000000002,7509.375,10014.0
2.7800000000000002,7508.4375,10013.3125
2.8000000000000003,7507.375,10013.3125
2.82,7505.9375,10012.5625
2.84,7503.125,10008.875
2.86,7499.1875,10002.75
2.88,7494.625,9997.0625
2.9,7490.125,9990.0625
2.92,7484.375,9981.3125
2.94,7476.25,9968.6875
2.96,7462.1875,9943.75
2.98,7455.3125,9933.8125
3.0,7451.5625,9929.3125
3.02,7448.5625,9925.8125
3.04,7445.8125,9922.9375
3.06,7443.0625,9919.125
3.08,7440.375,9916.1875
3.1,7437.375,9912.5
3.12,7434.125,9908.875
3.14,7431.6875,9906.5625
3.16,7427.125,9901.625
3.18,7420.1875,9894.125
3.2,7415.6875,9889.3125
3.22,7411.9375,9886.9375
3.24,7407.75,9884.4375
3.2600000000000002,7403.875,9881.6875
3.2800000000000002,7398.4375,9878.6875
3.3000000000000003,7394.1875,9876.3125
3.3200000000000003,7389.4375,9872.875
3.34,7385.875,9870.8125
3.36,7382.25,9869.0625
3.38,7380.625,9868.75
3.4,7378.0625,9866.875
3.42,7374.3125,9861.1875
3.44,7371.9375,9858.8125
3.46,7366.8125,9854.125
3.48,7363.375,9852.125
3.5,7360.625,9850.5625
3.52,7352.6875,9843.625
3.54,7345.5625,9838.1875
3.56,7339.5,9834.125
3.58,7336.25,9831.375
3.6,7332.4375,9828.5625
3.62,7329.5625,9826.1875
3.64,7327.875,9826.125
3.66,7327.75,9828.0
3.68,7327.5625,9830.375
3.7,7326.875,9830.1875
3.72,7322.625,9824.4375
3.74,7321.75,9823.6875
3.7600000000000002,7316.9375,9817.0
3.7800000000000002,7310.5625,9805.5625
3.8000000000000003,7302.125,9791.3125
3.8200000000000003,7294.8125,9779.625
3.84,7283.4375,9760.1875
3.86,7270.75,9739.25
3.88,7257.3125,9720.25
3.9,7245.1875,9700.125
3.92,7229.3125,9678.9375
3.94,7216.9375,9661.625
3.96,7193.5,9623.8125
3.98,7152.625,9562.5
4.0,7123.1875,9515.25
4.0200000000000005,7094.375,9468.8125
4.04,7064.375,9425.125
4.0600000000000005,7036.75,9389.0
4.08,7008.125,9344.5
4.1,6966.625,9279.125
4.12,6923.9375,9213.375
4.14,6876.0,9127.9375
4.16,6843.5,9060.9375
4.18,6810.5,8989.8125
4.2,6783.75,8920.625
4.22,6765.375,8887.125
4.24,6761.875,8869.6875
4.26,6774.5625,8858.0
4.28,6789.875,8850.0
4.3,6803.0,8839.4375
4.32,6804.6875,8819.25
4.34,6807.625,8804.3125
4.36,6811.5,8793.5625
4.38,6811.0625,8775.25
4.4,6814.1875,8764.5
4.42,6826.8125,8771.0625
4.44,6850.875,8799.0
4.46,6875.5625,8825.6875
4.48,6883.5625,8810.625
4.5,6909.0625,8818.5
4.5200000000000005,6933.875,8817.5625
4.54,6993.3125,8861.3125
4.5600000000000005,7039.625,8891.0
4.58,7136.625,8961.25
4.6000000000000005,7184.4375,8994.375
4.62,7220.5625,9016.875
4.64,7266.5625,9050.875
4.66,7340.0625,9112.0625
4.68,7480.125,9227.4375
4.7,7693.3125,9393.5625
4.72,7819.0625,9489.375
4.74,7896.875,9543.5625
4.76,7961.3125,9583.5
4.78,8007.9375,9609.75
4.8,8046.1875,9637.3125
4.82,8090.375,9663.1875
4.84,8166.0625,9729.9375
4.86,8195.3125,9752.875
4.88,8219.875,9766.75
4.9,8241.1875,9773.375
4.92,8265.625,9785.75
4.94,8286.75,9792.1875
4.96,8301.8125,9787.6875
4.98,8317.875,9790.625
5.0,8333.4375,9799.375
5.0200000000000005,8366.5625,9815.25
5.04,8444.1875,9851.875
5.0600000000000005,8554.5625,9865.375
5.08,8599.625,9844.0625
5.1000000000000005,8620.0,9820.4375
5.12,8627.1875,9783.0
5.14,8668.8125,9800.3125
5.16,8670.1875,9840.625
5.18,8657.0,9859.0
5.2,8673.125,9872.5
5.22,8688.25,9885.9375
5.24,8696.3125,9888.625
5.26,8706.75,9881.3125
5.28,8715.8125,9861.3125
5.3,8714.9375,9855.4375
5.32,8721.5625,9834.8125
5.34,8729.3125,9823.5
5.36,8729.875,9818.5625
5.38,8728.1875,9807.8125
5.4,8730.0,9788.625
5.42,8737.6875,9775.5
5.44,8734.375,9772.8125
5.46,8728.6875,9771.0625
5.48,8746.375,9769.9375
5.5,8762.125,9784.5
5.5200000000000005,8773.6875,9799.375
5.54,8776.8125,9802.75
5.5600000000000005,8771.375,9812.875
5.58,8780.6875,9806.1875
5.6000000000000005,8787.75,9810.8125
5.62,8787.4375,9816.875
5.64,8802.0,9815.375
5.66,8811.125,9814.9375
5.68,8814.375,9811.9375
5.7,8822.25,9804.6875
5.72,8831.5625,9796.0
5.74,8829.375,9788.0
5.76,8833.0,9785.1875
5.78,8847.875,9789.5625
5.8,8865.9375,9799.0625
5.82,8879.5625,9807.3125
5.84,8892.5625,9811.0
5.86,8921.0625,9801.625
5.88,8949.0,9786.6875
5.9,8944.5,9776.3125
5.92,8924.25,9760.9375
5.94,8921.625,9741.5
5.96,8940.5625,9733.125
5.98,8934.0,9724.5
6.0,8909.9375,9700.6875
6.0200000000000005,8937.0,9685.5625
6.04,8955.1875,9683.8125
6.0600000000000005,8935.3125,9690.1875
6.08,8929.625,9686.5625
6.1000000000000005,8972.25,9681.375
6.12,8976.5625,9676.4375
6.140000000000001,8947.0625,9649.875
6.16,8938.1875,9611.125
6.18,8912.625,9567.6875
6.2,8808.625,9506.75
6.22,8755.75,9509.25
6.24,8780.75,9504.8125
6.26,8847.6875,9493.5625
6.28,8888.875,9501.9375
6.3,8895.5625,9501.8125
6.32,8896.75,9494.1875
6.34,8886.6875,9486.3125
6.36,8895.5625,9466.9375
6.38,8913.125,9443.3125
6.4,8911.125,9428.5625
6.42,8854.5,9400.4375
6.44,8786.8125,9353.375
6.46,8716.3125,9312.625
6.48,8615.125,9257.8125
6.5,8581.0,9232.375
6.5200000000000005,8617.75,9233.75
6.54,8629.1875,9232.0625
6.5600000000000005,8586.8125,9233.5625
6.58,8563.125,9237.0
6.6000000000000005,8574.5625,9234.375
6.62,8591.9375,9232.5625
6.640000000000001,8605.875,9238.8125
6.66,8607.1875,9245.1875
6.68,8611.4375,9246.625
6.7,8627.5,9245.6875
6.72,8640.875,9246.5
6.74,8639.1875,9220.8125
6.76,8651.6875,9178.5625
6.78,8665.6875,9126.375
6.8,8679.25,9017.3125
6.82,8466.125,8805.0
6.84,8246.0,8551.6875
6.86,7950.75,8293.4375
6.88,7565.4375,7907.3125
6.9,6906.125,7066.8125
6.92,5562.75,5472.0
6.94,3776.4375,3439.125
6.96,1951.875,1729.4375
6.98,1022.9375,986.875
7.0,840.4375,870.0625
7.0200000000000005,737.375,807.8125
7.04,564.6875,668.5625
7.0600000000000005,376.125,493.1875
7.08,252.875,369.625
7.1000000000000005,147.8125,275.25
7.12,117.5,345.75
7.140000000000001,134.875,453.4375
7.16,106.4375,351.3125
7.18,190.75,1062.1875
7.2,1451.8125,5115.5
7.22,1601.0,8319.3125
7.24,1124.125,7197.4375
7.26,253.375,1672.8125
7.28,204.3125,1302.0625
7.3,739.6875,4208.5
7.32,1428.625,8040.8125
7.34,952.6875,7986.625
7.36,473.375,6127.8125
7.38,536.25,6517.75
7.4,819.25,7687.1875
7.42,1111.5,8323.0
7.44,1385.875,8823.125
7.46,1334.1875,8456.0625
7.48,979.0,7473.3125
7.5,657.25,6373.5625
7.5200000000000005,614.625,6202.3125
7.54,620.6875,6274.5
7.5600000000000005,611.8125,6331.8125
7.58,600.9375,6332.25
7.6000000000000005,598.3125,6322.8125
7.62,607.3125,6345.5625
7.640000000000001,616.75,6333.5
7.66,670.5,6534.6875
7.68,766.0,6937.125
7.7,851.0,7200.4375
7.72,891.0,7456.3125
7.74,802.25,7501.0
7.76,783.125,7059.5625
7.78,650.875,6935.4375
7.8,664.4375,7171.1875
7.82,753.625,7609.625
7.84,821.25,8081.25
7.86,748.25,7649.25
7.88,669.0,7256.875
7.9,783.625,7596.1875
7.92,1101.8125,8883.625
7.94,1725.1875,11305.375
7.96,2044.25,12264.0
7.98,1890.3125,11152.5625
8.0,1510.6875,9029.5625
8.02,1137.625,6941.1875
8.040000000000001,828.1875,5331.3125
8.06,641.8125,4564.875
8.08,600.125,4524.875
8.1,630.9375,4901.0
8.120000000000001,668.0625,5212.0
8.14,627.0625,4855.0
8.16,463.3125,3521.5
8.18,311.375,2343.4375
8.2,225.75,1622.6875
8.22,166.875,1126.8125
8.24,154.6875,1006.4375
8.26,150.4375,947.1875
8.28,163.0625,1059.5625
8.3,175.6875,1171.375
8.32,183.8125,1233.625
8.34,190.4375,1281.25
8.36,196.0,1319.625
8.38,198.0,1337.0
8.4,194.3125,1304.4375
8.42,186.6875,1241.875
8.44,179.375,1180.875
8.46,173.9375,1131.875
8.48,170.6875,1106.0625
8.5,169.3125,1088.9375
8.52,170.1875,1096.9375
8.540000000000001,173.75,1125.5
8.56,176.4375,1145.875
8.58,177.125,1147.75
8.6,175.4375,1132.375
8.620000000000001,169.9375,1082.1875
8.64,161.6875,1016.5
8.66,155.6875,969.625
8.68,152.6875,946.5625
8.700000000000001,154.3125,960.875
8.72,159.5625,1010.125
8.74,164.875,1060.25
8.76,168.1875,1089.3125
8.78,170.0,1105.5
8.8,171.6875,1120.375
8.82,174.875,1146.375
8.84,177.6875,1170.4375
8.86,180.8125,1187.4375
8.88,183.9375,1208.1875
8.9,185.625,1220.375
8.92,185.0625,1205.5
8.94,182.9375,1181.125
8.96,180.125,1158.0
8.98,175.375,1120.25
9.0,169.625,1072.0
9.02,164.4375,1027.8125
9.040000000000001,162.6875,1011.875
9.06,162.375,1006.6875
9.08,162.5625,1004.4375
9.1,163.6875,1008.5
9.120000000000001,163.8125,1001.4375
9.14,158.6875,948.8125
9.16,151.0,880.125
9.18,143.8125,831.25
9.200000000000001,140.0625,812.0
9.22,138.5625,811.5625
9.24,138.375,817.3125
9.26,137.8125,810.5
9.28,137.0625,802.0625
9.3,136.4375,789.125
9.32,136.4375,785.75
9.34,137.9375,800.25
9.36,139.0625,818.3125
9.38,138.625,825.9375
9.4,138.25,835.5
9.42,137.5625,839.9375
9.44,135.4375,823.0
9.46,133.125,796.0
9.48,131.5,776.4375
9.5,131.3125,772.5
9.52,132.0,777.9375
9.540000000000001,132.25,786.375
9.56,132.4375,796.4375
9.58,131.5625,799.125
9.6,132.5,814.6875
9.620000000000001,133.75,833.125
9.64,134.625,844.5625
9.66,134.875,845.6875
9.68,134.625,835.125
9.700000000000001,134.0625,827.125
9.72,133.875,823.6875
9.74,134.0,825.0
9.76,135.375,841.6875
9.78,136.6875,860.0
9.8,137.75,874.6875
9.82,139.25,897.5625
9.84,140.9375,929.3125
9.86,142.0625,950.5
9.88,139.9375,918.25
9.9,136.0,873.0625
9.92,132.875,834.1875
9.94,133.875,825.75
9.96,137.1875,841.25
9.98,136.9375,821.3125
10.0,133.625,782.75
10.02,128.1875,722.75
10.040000000000001,120.75,651.8125
10.06,114.6875,607.0
10.08,108.5625,577.0
10.1,107.375,593.5
10.120000000000001,107.4375,600.0625
10.14,106.0625,582.5
10.16,105.625,580.375
10.18,107.1875,601.25
10.200000000000001,109.375,621.0625
10.22,109.25,621.6875
10.24,112.125,645.375
10.26,119.5,698.125
10.28,131.0,759.9375
10.3,139.6875,789.75
10.32,144.6875,831.8125
10.34,156.875,944.9375
10.36,176.9375,1129.9375
10.38,199.0625,1365.375
10.4,221.875,1600.0
10.42,270.1875,2047.625
10.44,346.0,2663.0
10.46,457.625,3560.0
10.48,718.8125,5589.125
10.5,1159.75,8761.375
10.52,1375.0,10145.8125
10.540000000000001,1558.3125,11068.5625
10.56,1203.0,8732.3125
10.58,644.875,4801.5625
10.6,305.9375,2228.0
10.620000000000001,204.75,1240.3125
10.64,194.8125,958.1875
10.66,173.0,782.5
10.68,148.0,579.375
10.700000000000001,134.125,449.8125
10.72,126.0,374.375
10.74,121.75,334.375
10.76,119.0,307.5625
10.78,118.6875,296.9375
10.8,118.8125,293.5625
10.82,117.125,284.5
10.84,113.25,272.0
10.86,108.8125,262.0625
10.88,106.375,256.875
10.9,104.125,251.6875
10.92,103.125,271.0625
10.94,108.6875,378.8125
10.96,118.375,515.1875
10.98,125.8125,600.6875
11.0,133.875,693.3125
11.02,142.25,791.9375
11.040000000000001,145.25,823.375
11.06,148.625,854.875
11.08,155.625,914.0625
11.1,160.625,954.8125
11.120000000000001,162.3125,969.625
11.14,163.4375,980.3125
11.16,166.25,1006.125
11.18,170.4375,1043.25
11.200000000000001,173.6875,1070.9375
11.22,176.625,1092.25
11.24,180.0625,1114.0625
11.26,181.0,1116.5625
11.28,181.1875,1115.25
11.3,184.9375,1146.625
11.32,192.1875,1197.25
11.34,195.125,1198.375
11.36,200.5625,1227.1875
11.38,210.25,1280.3125
11.4,219.4375,1337.6875
11.42,226.4375,1379.125
11.44,226.4375,1373.625
11.46,217.6875,1313.3125
11.48,201.4375,1203.125
11.5,168.0,917.5
11.52,141.125,622.4375
11.540000000000001,134.6875,523.8125
11.56,133.4375,494.1875
11.58,134.0625,489.5
11.6,134.4375,487.75
11.620000000000001,135.0,483.6875
11.64,135.0625,478.375
11.66,134.0625,462.9375
11.68,131.8125,434.375
11.700000000000001,129.5625,403.0
11.72,128.4375,385.0
11.74,128.5625,385.5
11.76,129.0,395.0
11.78,129.4375,405.4375
11.8,129.8125,413.125
11.82,130.25,414.4375
11.84,130.4375,412.4375
11.86,130.25,409.0625
11.88,130.1875,406.9375
11.9,130.5,407.1875
11.92,130.625,410.875
11.94,131.4375,416.5625
11.96,131.9375,424.125
11.98,132.6875,436.125
12.0,133.25,454.0625
12.02,133.9375,470.5
12.040000000000001,134.125,477.875
12.06,134.125,479.5625
12.08,134.875,476.9375
12.1,135.375,473.4375
12.120000000000001,135.3125,467.625
12.14,135.1875,462.25
12.16,135.125,463.0
12.18,136.6875,473.625
12.200000000000001,138.1875,484.375
12.22,139.25,489.5
12.24,139.5625,489.9375
12.26,139.5625,486.125
12.280000000000001,139.3125,484.8125
12.3,139.6875,488.125
12.32,140.625,494.25
12.34,141.3125,501.5
12.36,144.125,519.3125
12.38,150.125,568.875
12.4,156.875,633.25
12.42,168.3125,719.0625
12.44,196.5,876.5
12.46,261.9375,1156.0625
12.48,382.5,1597.4375
12.5,561.0625,2198.25
12.52,787.1875,2951.9375
12.540000000000001,967.125,3515.8125
12.56,1108.5625,3979.9375
12.58,1228.125,4374.0
12.6,1433.875,5136.9375
12.620000000000001,1915.75,6771.4375
12.64,2665.25,9081.1875
12.66,3192.1875,11173.6875
12.68,3024.4375,12534.4375
12.700000000000001,2587.5,13924.4375
12.72,2170.1875,13312.8125
12.74,1646.25,11797.375
12.76,529.625,8988.25
12.780000000000001,282.0625,8313.3125
12.8,321.5,7721.1875
12.82,1112.9375,8996.9375
12.84,3130.1875,12258.25
12.86,3176.9375,8943.875
12.88,2598.8125,7220.3125
12.9,1684.0625,6077.0
12.92,1284.1875,5867.5
12.94,1259.4375,5961.25
12.96,1269.875,6034.625
12.98,1276.4375,6084.375
13.0,1280.9375,6122.4375
13.02,1278.25,6141.75
13.040000000000001,1262.1875,6126.9375
13.06,1246.6875,6096.9375
13.08,1241.25,6062.375
13.1,1243.5625,6023.5
13.120000000000001,1250.1875,6000.0625
13.14,1255.0,6039.3125
13.16,1251.875,6126.875
13.18,1250.4375,6186.0
13.200000000000001,1233.0,6222.375
13.22,1205.5625,6229.375
13.24,1175.25,6226.6875
13.26,1204.1875,6279.1875
13.280000000000001,1293.875,6383.75
13.3,1458.5,6580.375
13.32,1843.625,7111.25
13.34,2275.4375,7681.5
13.36,2311.0625,7668.625
13.38,2254.625,7544.4375
13.4,2187.125,7425.75
13.42,2227.0625,7467.75
13.44,2187.125,7399.5625
13.46,2197.1875,7418.5625
13.48,2265.4375,7532.6875
13.5,2356.125,7691.6875
13.52,2497.5,7932.875
13.540000000000001,2646.8125,8179.0
13.56,2897.75,8581.3125
13.58,3156.9375,9002.0625
13.6,3331.9375,9269.5625
13.620000000000001,3374.25,9314.625
13.64,3396.4375,9346.0
13.66,3442.6875,9420.6875
13.68,3506.0625,9527.375
13.700000000000001,3571.375,9647.9375
13.72,3688.8125,9843.125
13.74,3823.75,10034.5
13.76,3928.5625,10154.875
13.780000000000001,3959.375,10149.0625
13.8,4007.875,10174.625
13.82,4062.0,10228.4375
13.84,4064.375,10218.125
13.86,3994.5625,10115.75
13.88,3665.0,9651.875
13.9,2830.4375,8364.875
13.92,2043.25,7166.125
13.94,1684.625,6722.3125
13.96,1562.125,6629.25
13.98,1482.1875,6548.5
14.0,1416.625,6482.1875
14.02,1410.5625,6484.0
14.040000000000001,1460.0625,6549.25
14.06,1549.8125,6657.3125
14.08,1691.25,6836.9375
14.1,2002.0625,7329.25
14.120000000000001,2553.9375,8039.5625
14.14,2912.625,8157.5
14.16,3089.9375,7990.25
14.18,3147.75,7798.75
14.200000000000001,3212.125,7690.25
14.22,2938.0,7015.0
14.24,2645.75,6232.6875
14.26,2117.25,5048.6875
14.280000000000001,1787.25,4337.0
14.3,1428.375,3646.375
14.32,1006.3125,2742.4375
14.34,704.75,2015.875
14.36,541.6875,1635.9375
14.38,473.3125,1483.875
14.4,438.375,1386.625
14.42,397.9375,1254.625
14.44,356.3125,1114.3125
14.46,311.9375,969.875
14.48,258.25,822.5625
14.5,216.0625,730.125
14.52,185.9375,594.125
14.540000000000001,159.6875,429.5
14.56,143.5625,343.75
14.58,134.75,299.3125
14.6,129.4375,267.5625
14.620000000000001,124.5,235.75
14.64,120.0,207.0625
14.66,116.125,184.4375
14.68,114.1875,172.1875
14.700000000000001,113.6875,169.5625
14.72,114.375,171.25
14.74,116.8125,180.25
14.76,120.875,196.5
14.780000000000001,126.3125,216.5
14.8,130.875,232.5625
14.82,131.3125,236.0
14.84,130.0,235.125
14.86,128.8125,236.375
14.88,130.1875,243.9375
14.9,131.8125,250.9375
14.92,132.125,254.5
14.94,130.5625,254.3125
14.96,128.5625,252.5
14.98,127.1875,247.8125
15.0,126.625,244.5
15.02,126.5625,241.125
15.040000000000001,126.875,238.0625
15.06,128.0,240.5625
15.08,128.625,243.6875
15.1,128.6875,244.25
15.120000000000001,129.6875,247.3125
15.14,130.5,250.75
15.16,131.0,253.75
15.18,131.0625,254.9375
15.200000000000001,129.625,251.3125
15.22,127.8125,246.125
15.24,127.3125,245.5625
15.26,126.875,244.6875
15.280000000000001,125.9375,242.875
15.3,125.6875,241.4375
15.32,125.3125,240.125
15.34,124.75,238.5
15.36,124.3125,237.8125
15.38,124.25,238.5
15.4,124.1875,238.6875
15.42,124.4375,238.625
15.44,124.5625,239.75
15.46,124.3125,238.5625
15.48,123.8125,234.0
15.5,123.125,230.4375
15.52,122.3125,226.6875
15.540000000000001,121.9375,224.125
15.56,121.8125,223.0625
15.58,121.8125,223.75
15.6,122.5,224.4375
15.620000000000001,122.4375,225.5625
15.64,122.3125,225.4375
15.66,122.8125,224.1875
15.68,122.125,222.9375
15.700000000000001,122.125,221.5625
15.72,122.125,219.8125
15.74,122.1875,218.3125
15.76,121.9375,216.75
15.780000000000001,123.0,209.75
15.8,123.1875,200.9375
15.82,123.5,203.6875
15.84,122.25,200.4375
15.860000000000001,121.0,194.875
15.88,120.0625,190.625
15.9,120.0,190.0625
15.92,120.125,191.75
15.94,120.8125,195.0
15.96,121.6875,197.5625
15.98,122.1875,199.875
16.0,125.0625,205.375
16.02,128.375,214.1875
16.04,130.875,219.875
16.06,125.125,199.6875
16.080000000000002,112.375,159.5
16.1,100.75,124.25
16.12,93.5,101.875
16.14,89.0,89.4375
16.16,86.625,81.875
16.18,85.4375,78.8125
16.2,86.375,84.625
16.22,97.8125,129.6875
16.240000000000002,108.3125,168.0
16.26,88.75,91.6875
16.28,79.6875,62.375
16.3,77.6875,52.3125
16.32,77.5625,49.8125
16.34,77.875,48.9375
16.36,77.875,48.5
16.38,78.1875,48.125
16.4,78.125,48.125
16.42,78.1875,48.4375
16.44,78.3125,48.9375
16.46,78.6875,49.8125
16.48,79.3125,51.25
16.5,80.1875,53.5
16.52,80.875,55.6875
16.54,81.6875,57.6875
16.56,82.4375,59.375
16.580000000000002,82.6875,61.9375
16.6,83.75,64.25
16.62,84.875,67.8125
16.64,86.4375,72.9375
16.66,88.125,77.8125
16.68,88.9375,81.25
16.7,88.9375,81.3125
16.72,88.5625,80.375
16.740000000000002,89.1875,81.6875
16.76,89.75,83.3125
16.78,89.375,83.4375
16.8,89.0,81.375
16.82,89.0,77.6875
16.84,88.6875,74.625
16.86,89.0,71.0
16.88,89.0625,67.6875
16.9,88.375,66.0625
16.92,88.9375,65.75
16.94,89.8125,66.9375
16.96,91.25,68.75
16.98,93.4375,71.0625
17.0,95.875,74.1875
17.02,99.375,78.0625
17.04,103.875,82.6875
17.06,109.5,89.25
17.080000000000002,117.75,98.25
17.1,129.625,111.4375
17.12,149.1875,132.6875
17.14,179.0625,164.625
17.16,222.125,211.9375
17.18,283.4375,283.375
17.2,383.0625,406.1875
17.22,575.25,648.875
17.240000000000002,936.8125,1088.9375
17.26,1339.4375,1542.375
17.28,1316.125,1493.1875
17.3,1087.5,1243.0
17.32,1040.375,1203.25
17.34,1167.8125,1341.5
17.36,1327.3125,1493.75
17.38,1379.3125,1530.3125
17.400000000000002,1381.375,1525.25
17.42,1428.5,1561.8125
17.44,1475.125,1594.5625
17.46,1547.75,1656.25
17.48,1700.4375,1804.375
17.5,2031.75,2125.0625
17.52,2481.1875,2541.8125
17.54,2881.0625,2884.9375
17.56,2997.1875,2963.1875
17.580000000000002,2890.5625,2846.4375
17.6,2666.5625,2645.8125
17.62,2526.4375,2518.5625
17.64,2477.9375,2464.125
17.66,2496.375,2475.3125
17.68,2639.6875,2611.6875
17.7,2961.625,2901.9375
17.72,3310.9375,3212.75
17.740000000000002,3672.875,3521.25
17.76,3954.6875,3776.375
17.78,4180.0625,4026.8125
17.8,4325.1875,4183.75
17.82,4148.5,4018.125
17.84,3750.375,3656.625
17.86,3436.25,3381.375
17.88,3229.6875,3208.75
17.900000000000002,3196.75,3186.8125
17.92,3138.25,3145.5625
17.94,3211.4375,3225.0625
17.96,3572.75,3624.1875
17.98,4362.5,4446.25
18.0,5338.0,5358.3125
18.02,6483.0625,6423.5
18.04,7769.375,7670.625
18.06,9132.25,9099.5625
18.080000000000002,10047.125,10304.0
18.1,10258.0625,10944.25
18.12,10067.1875,11214.8125
18.14,9583.0,11276.5625
18.16,8699.625,10978.9375
18.18,8021.75,10606.375
18.2,7807.375,10436.25
18.22,7679.125,10310.5
18.240000000000002,7616.625,10243.0625
18.26,7596.375,10210.5625
18.28,7583.375,10175.4375
18.3,7576.8125,10152.375
18.32,7582.125,10148.5
18.34,7591.75,10160.125
18.36,7592.5625,10161.875
18.38,7584.75,10152.4375
18.400000000000002,7573.875,10140.375
18.42,7561.375,10124.6875
18.44,7537.1875,10098.0
18.46,7491.3125,10044.25
18.48,7425.8125,9966.9375
18.5,7295.125,9798.5
18.52,8639.625,10876.6875
18.54,10197.375,11812.125
18.56,10913.4375,11932.875
18.580000000000002,10545.25,11765.125
18.6,10140.5625,11609.5
18.62,9518.75,11317.6875
18.64,9137.4375,11094.3125
18.66,8120.8125,10427.0
18.68,7533.625,10006.625
18.7,7202.875,9746.9375
18.72,7207.875,9731.75
18.740000000000002,7231.5,9745.1875
18.76,7250.0,9758.3125
18.78,7268.625,9772.3125
18.8,7281.9375,9783.5625
18.82,7291.125,9795.875
18.84,7303.9375,9813.25
18.86,7320.5625,9831.8125
18.88,7338.3125,9849.5
18.900000000000002,7356.1875,9866.1875
18.92,7373.5625,9878.125
18.94,7389.1875,9875.125
18.96,7404.5625,9872.5625
18.98,7413.4375,9874.375
19.0,7413.25,9871.625
19.02,7409.5,9867.75
19.04,7405.4375,9866.5625
19.06,7403.375,9865.6875
19.080000000000002,7402.625,9867.0
19.1,7402.125,9869.5
19.12,7401.375,9871.75
19.14,7402.0,9876.1875
19.16,7405.0,9887.5625
19.18,7409.1875,9900.5625
19.2,7409.8125,9906.6875
19.22,7409.5,9911.5
19.240000000000002,7409.125,9915.3125
19.26,7408.25,9918.1875
19.28,7408.4375,9922.8125
19.3,7408.0625,9926.3125
19.32,7409.0625,9929.5625
19.34,7412.625,9932.25
19.36,7418.0625,9933.75
19.38,7428.9375,9934.6875
19.400000000000002,7443.25,9937.25
19.42,7455.8125,9940.75
19.44,7468.5,9943.875
19.46,7477.875,9947.0625
19.48,7486.625,9950.5625
19.5,7497.25,9957.625
19.52,7509.375,9967.375
19.54,7521.375,9978.125
19.56,7530.75,9985.9375
19.580000000000002,7537.75,9990.75
19.6,7540.6875,9991.5625
19.62,7535.5625,9985.4375
19.64,7526.0625,9975.25
19.66,7519.125,9969.5625
19.68,7516.25,9969.125
19.7,7512.9375,9964.0
19.72,7509.3125,9958.0625
19.740000000000002,7510.0,9956.375
19.76,7519.9375,9966.75
19.78,7529.0,9979.0625
19.8,7537.5625,9990.875
19.82,7546.9375,10002.4375
19.84,7554.1875,10012.125
19.86,7560.5,10021.125
19.88,7565.8125,10030.0
19.900000000000002,7571.6875,10038.125
19.92,7578.125,10044.875
19.94,7583.5625,10051.25
19.96,7587.5625,10055.1875
19.98,7589.0,10056.0
20.0,7588.125,10055.0
20.02,7586.6875,10054.125
20.04,7584.75,10054.3125
20.06,7584.4375,10056.5625
20.080000000000002,7584.75,10058.375
20.1,7581.75,10056.4375
20.12,7571.0,10043.0
20.14,7555.0,10018.25
20.16,7541.125,9993.4375
20.18,7526.75,9973.0
20.2,7522.0,9966.0
20.22,7521.1875,9964.0
20.240000000000002,7518.9375,9961.0625
20.26,7521.8125,9967.0625
20.28,7545.1875,9999.0
20.3,7562.25,10018.5625
20.32,7568.375,10025.125
20.34,7574.125,10031.0625
20.36,7576.5625,10034.8125
20.38,7578.9375,10039.6875
20.400000000000002,7584.9375,10049.0625
20.42,7591.6875,10058.25
20.44,7596.9375,10064.5
20.46,7600.625,10068.75
20.48,7603.5625,10072.625
20.5,7606.6875,10076.4375
20.52,7610.375,10080.75
20.54,7613.9375,10085.0625
20.56,7617.75,10089.8125
20.580000000000002,7623.6875,10097.0625
20.6,7629.8125,10103.4375
20.62,7634.6875,10106.9375
20.64,7636.0,10107.4375
20.66,7633.875,10105.875
20.68,7629.6875,10101.6875
20.7,7623.125,10094.0625
20.72,7612.6875,10081.75
20.740000000000002,7596.125,10061.0
20.76,7575.3125,10033.5625
20.78,7556.6875,10008.1875
20.8,7543.125,9989.9375
20.82,7537.5625,9982.3125
20.84,7532.0,9975.625
20.86,7525.8125,9969.125
20.88,7521.1875,9965.25
20.900000000000002,7519.875,9965.6875
20.92,7517.4375,9964.75
20.94,7515.5,9964.4375
20.96,7513.5,9963.1875
20.98,7512.25,9962.4375
21.0,7511.0625,9961.5
21.02,7509.75,9959.9375
21.04,7509.5625,9959.5
21.06,7512.9375,9963.0
21.080000000000002,7521.9375,9969.75
21.1,7524.75,9970.3125
21.12,7521.625,9965.375
21.14,7518.875,9961.1875
21.16,7516.375,9957.5
21.18,7511.625,9952.25
21.2,7506.75,9945.9375
21.22,7501.0625,9938.875
21.240000000000002,7497.1875,9934.1875
21.26,7495.5,9931.1875
21.28,7491.1875,9924.9375
21.3,7487.0,9920.3125
21.32,7485.6875,9918.0
21.34,7483.1875,9914.6875
21.36,7480.6875,9911.25
21.38,7478.875,9908.5625
21.400000000000002,7477.0,9906.125
21.42,7475.6875,9903.875
21.44,7474.9375,9901.75
21.46,7474.0625,9900.25
21.48,7473.875,9899.5
21.5,7473.4375,9897.75
21.52,7473.25,9897.0
21.54,7472.375,9895.25
21.56,7473.0625,9895.0
21.580000000000002,7473.375,9894.6875
21.6,7473.25,9895.125
21.62,7473.25,9894.625
21.64,7473.8125,9895.125
21.66,7475.25,9895.9375
21.68,7476.5625,9897.375
21.7,7478.5625,9899.8125
21.72,7480.5625,9901.75
21.740000000000002,7482.4375,9903.875
21.76,7483.8125,9905.6875
21.78,7484.4375,9907.0625
21.8,7484.0,9908.5
21.82,7483.0625,9910.0
21.84,7482.3125,9910.875
21.86,7479.4375,9910.4375
21.88,7477.625,9910.0
21.900000000000002,7475.25,9909.875
21.92,7473.0,9909.625
21.94,7471.5625,9909.8125
21.96,7470.375,9910.0
21.98,7468.625,9909.4375
22.0,7467.3125,9909.75
22.02,7466.25,9910.4375
22.04,7466.625,9911.875
22.06,7466.375,9912.9375
22.080000000000002,7466.25,9913.8125
22.1,7466.0625,9913.875
22.12,7465.8125,9913.8125
22.14,7465.625,9913.125
22.16,7465.25,9911.9375
22.18,7466.5,9913.125
22.2,7468.9375,9915.3125
22.22,7470.4375,9916.375
22.240000000000002,7471.6875,9916.8125
22.26,7472.4375,9916.625
22.28,7472.375,9916.3125
22.3,7472.6875,9915.8125
22.32,7472.0,9914.6875
22.34,7471.0,9912.625
22.36,7469.4375,9911.625
22.38,7468.625,9911.0
22.400000000000002,7468.875,9911.0625
22.42,7469.0,9911.1875
22.44,7469.0,9910.9375
22.46,7469.25,9910.875
22.48,7470.125,9911.0
22.5,7469.9375,9910.8125
22.52,7470.5,9910.375
22.54,7471.0,9911.5625
22.56,7472.25,9912.5625
22.580000000000002,7472.8125,9913.375
22.6,7473.5625,9914.1875
22.62,7474.8125,9915.875
22.64,7476.625,9917.4375
22.66,7477.5,9918.8125
22.68,7478.125,9919.3125
22.7,7478.5625,9919.75
22.72,7479.3125,9920.9375
22.740000000000002,7479.5625,9920.9375
22.76,7479.4375,9921.1875
22.78,7479.125,9921.375
22.8,7479.8125,9922.25
22.82,7480.875,9923.5
22.84,7481.625,9924.8125
22.86,7482.75,9926.1875
22.88,7483.9375,9926.9375
22.900000000000002,7484.5625,9927.625
22.92,7486.0,9929.0
22.94,7487.25,9930.1875
22.96,7487.5,9930.25
22.98,7487.8125,9930.8125
23.0,7488.375,9931.875
23.02,7489.4375,9932.5625
23.04,7489.6875,9933.0625
23.06,7489.375,9934.0
23.080000000000002,7489.6875,9934.6875
23.1,7489.8125,9936.0625
23.12,7490.3125,9936.5625
23.14,7490.625,9937.5
23.16,7490.1875,9936.375
23.18,7490.25,9935.375
23.2,7490.375,9934.625
23.22,7490.6875,9933.6875
23.240000000000002,7490.125,9932.625
23.26,7490.6875,9931.8125
23.28,7490.5,9931.625
23.3,7490.875,9931.8125
23.32,7491.125,9931.6875
23.34,7490.9375,9931.0625
23.36,7491.0625,9930.25
23.38,7490.8125,9930.0625
23.400000000000002,7489.875,9930.1875
23.42,7488.875,9929.625
23.44,7488.125,9929.375
23.46,7488.5,9929.875
23.48,7489.625,9930.6875
23.5,7489.8125,9931.0625
23.52,7489.875,9931.125
23.54,7490.25,9931.9375
23.56,7490.125,9932.0
23.580000000000002,7489.25,9931.6875
23.6,7489.0,9931.75
23.62,7488.25,9931.625
23.64,7487.375,9931.8125
23.66,7487.375,9931.625
23.68,7487.9375,9932.0625
23.7,7487.875,9932.4375
23.72,7487.375,9932.3125
23.740000000000002,7487.3125,9932.3125
23.76,7487.1875,9933.0
23.78,7487.125,9933.4375
23.8,7487.5625,9934.1875
23.82,7488.1875,9935.5625
23.84,7488.875,9937.125
23.86,7489.4375,9938.1875
23.88,7490.0625,9939.4375
23.900000000000002,7491.3125,9941.625
23.92,7493.125,9944.0625
23.94,7494.5,9945.9375
23.96,7495.25,9947.625
23.98,7496.125,9949.3125
24.0,7497.25,9951.1875
24.02,7498.375,9952.375
24.04,7499.375,9954.0625
24.060000000000002,7500.3125,9955.4375
24.080000000000002,7501.0,9956.625
24.1,7501.125,9957.3125
24.12,7501.25,9957.9375
24.14,7501.6875,9958.25
24.16,7502.1875,9959.1875
24.18,7502.4375,9959.0
24.2,7503.0625,9958.875
24.22,7503.8125,9959.5625
24.240000000000002,7504.8125,9960.125
24.26,7504.875,9960.3125
24.28,7504.875,9959.9375
24.3,7504.3125,9959.125
24.32,7503.3125,9957.125
24.34,7502.3125,9955.0625
24.36,7501.0,9954.3125
24.38,7500.5625,9953.3125
24.400000000000002,7499.875,9953.0
24.42,7500.25,9953.5625
24.44,7499.75,9954.1875
24.46,7499.75,9954.375
24.48,7499.625,9954.625
24.5,7499.875,9954.9375
24.52,7499.8125,9955.25
24.54,7500.25,9956.3125
24.560000000000002,7500.1875,9956.875
24.580000000000002,7500.8125,9957.4375
24.6,7500.6875,9958.0
24.62,7500.75,9958.375
24.64,7500.75,9958.375
24.66,7500.625,9958.875
24.68,7500.5,9959.0625
24.7,7500.25,9959.125
24.72,7500.125,9959.4375
24.740000000000002,7499.8125,9959.75
24.76,7499.75,9960.4375
24.78,7499.875,9960.375
24.8,7499.625,9960.9375
24.82,7500.0,9961.25
24.84,7500.75,9962.625
24.86,7500.375,9962.5625
24.88,7500.75,9963.5625
24.900000000000002,7501.125,9964.3125
24.92,7501.25,9965.1875
24.94,7501.8125,9965.875
24.96,7501.9375,9966.375
24.98,7502.75,9967.0
25.0,7503.5625,9968.5
25.02,7504.4375,9969.1875
25.04,7504.375,9969.5625
25.060000000000002,7504.1875,9968.75
25.080000000000002,7503.875,9967.625
25.1,7503.25,9966.625
25.12,7503.0,9966.0625
25.14,7503.0,9965.75
25.16,7503.875,9965.75
25.18,7504.5625,9965.5625
25.2,7504.9375,9965.4375
25.22,7505.125,9965.1875
25.240000000000002,7505.6875,9964.9375
25.26,7505.5625,9964.6875
25.28,7505.5625,9963.8125
25.3,7505.4375,9963.4375
25.32,7505.125,9963.125
25.34,7505.0625,9962.6875
25.36,7505.125,9962.625
25.38,7504.875,9962.4375
25.400000000000002,7504.8125,9962.5
25.42,7504.75,9962.1875
25.44,7504.75,9962.0625
25.46,7505.375,9962.625
25.48,7505.1875,9962.9375
25.5,7505.125,9963.125
25.52,7504.9375,9963.0
25.54,7504.8125,9962.5
25.560000000000002,7504.6875,9962.8125
25.580000000000002,7504.625,9962.3125
25.6,7504.75,9962.3125
25.62,7504.8125,9962.875
25.64,7504.8125,9963.5
25.66,7505.5625,9964.0625
25.68,7504.75,9963.8125
25.7,7504.9375,9964.125
25.72,7504.8125,9964.6875
25.740000000000002,7504.9375,9965.4375
25.76,7505.0,9965.8125
25.78,7505.4375,9966.6875
25.8,7506.0625,9967.1875
25.82,7506.375,9968.0625
25.84,7506.4375,9968.9375
25.86,7507.1875,9969.8125
25.88,7507.0625,9970.5625
25.900000000000002,7507.4375,9971.4375
25.92,7507.75,9972.625
25.94,7508.0625,9973.1875
25.96,7508.3125,9973.75
25.98,7508.4375,9974.6875
26.0,7508.375,9974.625
26.02,7508.375,9975.1875
26.04,7508.5625,9974.9375
26.060000000000002,7508.9375,9975.9375
26.080000000000002,7509.5,9976.5
26.1,7509.75,9976.875
26.12,7510.8125,9978.0
26.14,7512.0,9979.125
26.16,7512.8125,9979.75
26.18,7512.9375,9979.5
26.2,7513.25,9979.25
26.22,7513.6875,9979.4375
26.240000000000002,7514.0,9979.875
26.26,7514.125,9980.625
26.28,7514.1875,9981.375
26.3,7514.9375,9982.1875
26.32,7515.125,9983.75
26.34,7515.1875,9983.625
26.36,7514.625,9983.4375
26.38,7514.4375,9983.9375
26.400000000000002,7514.6875,9984.5625
26.42,7514.8125,9985.375
26.44,7515.1875,9986.5
26.46,7515.1875,9986.6875
26.48,7515.25,9987.6875
26.5,7515.875,9988.625
26.52,7516.375,9989.3125
26.54,7516.6875,9990.3125
26.560000000000002,7517.0,9990.875
26.580000000000002,7517.4375,9991.0
26.6,7517.25,9991.625
26.62,7517.8125,9992.0
26.64,7518.0,9992.5
26.66,7517.875,9992.875
26.68,7517.75,9993.3125
26.7,7517.75,9993.5625
26.72,7518.125,9994.75
26.740000000000002,7518.5,9996.0625
26.76,7518.875,9997.1875
26.78,7519.3125,9998.6875
26.8,7519.6875,9999.8125
26.82,7520.4375,10001.25
26.84,7521.5,10003.0
26.86,7522.9375,10005.375
26.88,7523.8125,10006.875
26.900000000000002,7524.8125,10008.25
26.92,7524.75,10008.75
26.94,7524.5625,10009.6875
26.96,7524.8125,10010.375
26.98,7525.125,10010.3125
27.0,7525.625,10010.6875
27.02,7525.875,10011.1875
27.04,7526.0,10011.0
27.060000000000002,7526.0625,10011.0625
27.080000000000002,7525.75,10011.125
27.1,7526.375,10011.4375
27.12,7526.6875,10011.3125
27.14,7526.875,10011.25
27.16,7526.4375,10010.375
27.18,7526.1875,10009.875
27.2,7526.0625,10010.1875
27.22,7526.1875,10009.8125
27.240000000000002,7526.25,10009.5
27.26,7525.5625,10009.125
27.28,7525.125,10008.375
27.3,7524.625,10007.5625
27.32,7524.375,10007.4375
27.34,7524.25,10007.125
27.36,7524.375,10007.0
27.38,7524.0,10006.875
27.400000000000002,7524.3125,10007.0
27.42,7524.3125,10007.4375
27.44,7524.0,10007.125
27.46,7523.8125,10007.0625
27.48,7523.5625,10006.75
27.5,7523.9375,10007.375
27.52,7523.4375,10007.0625
27.54,7523.4375,10007.5
27.560000000000002,7523.25,10007.625
27.580000000000002,7523.25,10007.5625
27.6,7523.625,10008.0625
27.62,7523.5625,10008.4375
27.64,7523.75,10009.3125
27.66,7524.1875,10010.25
27.68,7524.75,10011.0625
27.7,7524.875,10011.625
27.72,7524.75,10012.1875
27.740000000000002,7525.0625,10012.625
27.76,7525.3125,10013.5
27.78,7525.5,10013.9375
27.8,7524.6875,10013.9375
27.82,7525.25,10014.0625
27.84,7524.875,10013.75
27.86,7524.375,10012.9375
27.88,7524.0625,10012.6875
27.900000000000002,7524.5625,10013.25
27.92,7524.5625,10013.3125
27.94,7524.0625,10012.8125
27.96,7523.9375,10012.625
27.98,7523.5,10011.9375
28.0,7523.125,10011.5
28.02,7523.125,10010.5625
28.04,7522.6875,10010.0625
28.060000000000002,7522.5,10009.25
28.080000000000002,7521.9375,10008.5625
28.1,7521.8125,10007.5625
28.12,7521.5625,10007.75
28.14,7521.0625,10007.3125
28.16,7520.375,10006.5625
28.18,7520.1875,10006.0
28.2,7520.125,10005.9375
28.22,7519.75,10005.1875
28.240000000000002,7519.1875,10005.125
28.26,7519.125,10005.0625
28.28,7518.75,10004.75
28.3,7519.125,10005.875
28.32,7519.1875,10007.0
28.34,7519.6875,10008.3125
28.36,7519.75,10008.75
28.38,7520.0,10009.3125
28.400000000000002,7520.0625,10010.25
28.42,7520.625,10011.625
28.44,7521.5625,10013.25
28.46,7522.5,10015.1875
28.48,7523.125,10016.5
28.5,7523.875,10018.5
28.52,7525.1875,10020.125
28.54,7526.1875,10022.0
28.560000000000002,7526.8125,10023.625
28.580000000000002,7527.375,10024.75
28.6,7527.4375,10025.5625
28.62,7527.625,10026.5
28.64,7528.375,10027.875
28.66,7529.0,10028.5625
28.68,7529.5,10029.5
28.7,7529.5625,10030.75
28.72,7530.5,10032.0
28.740000000000002,7530.625,10033.125
28.76,7531.625,10034.4375
28.78,7532.875,10036.375
28.8,7535.0625,10038.9375
28.82,7536.0625,10041.25
28.84,7537.3125,10042.8125
28.86,7538.25,10044.625
28.88,7538.75,10045.0625
28.900000000000002,7538.1875,10044.4375
28.92,7537.5,10043.25
28.94,7536.3125,10041.6875
28.96,7535.375,10039.8125
28.98,7534.6875,10039.0
29.0,7535.0625,10039.5
29.02,7535.0625,10039.75
29.04,7534.6875,10039.625
29.060000000000002,7534.9375,10039.9375
29.080000000000002,7534.9375,10039.75
29.1,7535.4375,10039.8125
29.12,7535.625,10040.375
29.14,7536.4375,10040.6875
29.16,7536.625,10040.9375
29.18,7536.5625,10040.875
29.2,7536.625,10040.875
29.22,7536.25,10040.375
29.240000000000002,7535.75,10040.125
29.26,7535.125,10038.8125
29.28,7534.125,10038.3125
29.3,7533.4375,10037.625
29.32,7532.75,10037.1875
29.34,7531.9375,10035.875
29.36,7531.5,10035.8125
29.38,7531.125,10035.875
29.400000000000002,7530.6875,10035.75
29.42,7530.375,10035.5625
29.44,7529.25,10033.5625
29.46,7528.5,10032.25
29.48,7528.0625,10031.5625
29.5,7527.625,10030.8125
29.52,7527.5,10030.8125
29.54,7527.3125,10031.25
29.560000000000002,7526.9375,10031.1875
29.580000000000002,7526.9375,10031.5625
29.6,7526.875,10032.1875
29.62,7527.125,10032.5
29.64,7526.6875,10031.6875
29.66,7525.8125,10030.1875
29.68,7525.6875,10029.6875
29.7,7526.4375,10029.9375
29.72,7527.1875,10030.5625
29.740000000000002,7528.125,10031.9375
29.76,7529.1875,10033.4375
29.78,7529.25,10034.25
29.8,7529.875,10034.9375
29.82,7529.875,10034.6875
29.84,7530.0,10034.0
29.86,7528.4375,10032.75
29.88,7527.0,10031.1875
29.900000000000002,7525.9375,10030.3125
29.92,7524.75,10028.125
29.94,7523.0625,10025.75
29.96,7522.1875,10023.5
29.98,7520.5625,10021.4375
30.0,7518.4375,10019.1875
30.02,7517.0,10017.25
30.04,7515.1875,10015.3125
30.060000000000002,7514.0625,10013.625
30.080000000000002,7513.625,10012.75
30.1,7513.25,10013.5
30.12,7513.375,10013.875
30.14,7513.25,10014.0625
30.16,7513.4375,10014.625
30.18,7513.0625,10014.75
30.2,7512.375,10014.5625
30.22,7511.875,10014.3125
30.240000000000002,7511.875,10014.875
30.26,7512.75,10015.4375
30.28,7512.625,10015.25
30.3,7512.375,10014.5625
30.32,7511.875,10013.9375
30.34,7511.4375,10013.6875
30.36,7511.5625,10013.9375
30.38,7511.5625,10013.5625
30.400000000000002,7511.1875,10013.1875
30.42,7510.75,10013.25
30.44,7510.125,10012.875
30.46,7509.9375,10012.3125
30.48,7509.4375,10011.5
30.5,7508.8125,10011.75
30.52,7507.9375,10011.0625
30.54,7507.5,10009.9375
30.560000000000002,7507.5,10009.9375
30.580000000000002,7507.25,10009.5625
30.6,7507.875,10010.4375
30.62,7508.125,10011.4375
30.64,7507.1875,10011.3125
30.66,7506.75,10010.375
30.68,7506.0,10010.1875
30.7,7506.3125,10010.1875
30.72,7505.8125,10009.4375
30.740000000000002,7505.0625,10009.125
30.76,7504.5,10008.0
30.78,7503.625,10007.5
30.8,7503.25,10007.1875
30.82,7502.5,10006.25
30.84,7501.875,10005.25
30.86,7500.5625,10003.6875
30.88,7498.6875,10001.4375
30.900000000000002,7496.3125,9999.0
30.92,7493.625,9996.25
30.94,7491.3125,9992.8125
30.96,7488.5,9990.5625
30.98,7485.9375,9988.0
31.0,7483.6875,9986.0
31.02,7482.0625,9985.0
31.04,7480.6875,9983.375
31.060000000000002,7479.875,9982.6875
31.080000000000002,7478.625,9981.875
31.1,7477.6875,9980.875
31.12,7477.25,9980.875
31.14,7476.625,9981.3125
31.16,7475.8125,9980.875
31.18,7475.0625,9980.9375
31.2,7475.625,9982.0
31.220000000000002,7474.75,9981.4375
31.240000000000002,7474.4375,9981.6875
31.26,7474.5625,9981.9375
31.28,7474.9375,9983.125
31.3,7475.375,9983.875
31.32,7474.875,9983.75
31.34,7474.3125,9983.375
31.36,7473.8125,9983.125
31.38,7473.4375,9982.875
31.400000000000002,7473.5,9983.5
31.42,7473.5,9983.5625
31.44,7473.0,9983.875
31.46,7472.625,9983.625
31.48,7471.6875,9982.5625
31.5,7470.5625,9980.9375
31.52,7469.8125,9980.25
31.54,7470.0625,9979.3125
31.560000000000002,7469.0625,9977.9375
31.580000000000002,7468.125,9976.25
31.6,7467.5,9974.5625
31.62,7467.75,9974.3125
31.64,7467.5625,9973.9375
31.66,7467.4375,9973.25
31.68,7467.5625,9972.8125
31.7,7467.1875,9972.5
31.720000000000002,7467.75,9973.1875
31.740000000000002,7468.3125,9974.0
31.76,7467.9375,9973.75
31.78,7467.5,9973.25
31.8,7468.0,9973.625
31.82,7468.1875,9973.625
31.84,7467.75,9973.625
31.86,7467.125,9972.9375
31.88,7467.4375,9973.5
31.900000000000002,7467.0,9973.25
31.92,7466.8125,9972.75
31.94,7466.4375,9972.6875
31.96,7466.625,9972.875
31.98,7466.5625,9972.875
32.0,7466.5625,9972.8125
32.02,7466.3125,9973.1875
32.04,7466.0625,9973.4375
32.06,7466.5625,9973.875
32.08,7466.4375,9973.875
32.1,7466.5,9973.9375
32.12,7466.4375,9974.0625
32.14,7466.5,9974.0625
32.160000000000004,7466.625,9973.75
32.18,7466.5625,9974.3125
32.2,7466.875,9974.5
32.22,7467.0,9975.25
32.24,7467.125,9975.5625
32.26,7467.4375,9975.875
32.28,7467.75,9975.75
32.3,7467.625,9976.5625
32.32,7467.8125,9977.25
32.34,7467.875,9977.8125
32.36,7467.875,9977.8125
32.38,7467.9375,9978.625
32.4,7467.875,9978.3125
32.42,7467.75,9977.875
32.44,7467.8125,9977.6875
32.46,7468.125,9977.5
32.480000000000004,7467.875,9976.5
32.5,7467.4375,9976.4375
32.52,7466.5625,9974.9375
32.54,7466.0,9973.9375
32.56,7465.3125,9973.4375
32.58,7464.5625,9972.375
32.6,7463.625,9970.875
32.62,7462.6875,9970.125
32.64,7463.0,9970.75
32.660000000000004,7461.875,9970.5
32.68,7460.9375,9969.0
32.7,7461.25,9968.6875
32.72,7461.0625,9968.75
32.74,7461.375,9968.9375
32.76,7461.6875,9969.75
32.78,7462.4375,9971.4375
32.8,7462.75,9972.3125
32.82,7463.4375,9972.6875
32.84,7463.625,9973.0
32.86,7463.0,9972.5
32.88,7463.625,9972.9375
32.9,7464.25,9973.5
32.92,7464.5625,9974.5625
32.94,7465.5625,9976.0625
32.96,7466.25,9976.9375
32.980000000000004,7466.3125,9977.625
33.0,7467.0625,9978.375
33.02,7466.6875,9978.4375
33.04,7467.25,9979.125
33.06,7467.5625,9979.6875
33.08,7467.75,9980.1875
33.1,7467.6875,9980.3125
33.12,7467.3125,9979.4375
33.14,7466.8125,9979.4375
33.160000000000004,7467.0625,9980.375
33.18,7467.375,9981.0625
33.2,7467.0,9980.875
33.22,7466.25,9979.75
33.24,7466.0625,9979.5625
33.26,7465.8125,9980.3125
33.28,7466.5625,9980.6875
33.3,7466.375,9980.8125
33.32,7466.0,9980.0
33.34,7465.9375,9979.4375
33.36,7466.8125,9979.5625
33.38,7466.125,9978.4375
33.4,7465.25,9977.1875
33.42,7465.6875,9976.3125
33.44,7465.5,9975.9375
33.46,7465.75,9975.5625
33.480000000000004,7465.0,9974.8125
33.5,7465.0625,9974.5625
33.52,7465.5625,9975.6875
33.54,7466.0,9975.75
33.56,7466.1875,9975.8125
33.58,7465.25,9974.9375
33.6,7464.75,9973.6875
33.62,7465.125,9974.1875
33.64,7465.875,9975.0625
33.660000000000004,7465.875,9975.0
33.68,7466.125,9975.5625
33.7,7466.75,9976.75
33.72,7467.6875,9978.0
33.74,7468.5,9979.5
33.76,7468.6875,9980.1875
33.78,7469.0,9980.3125
33.8,7469.4375,9982.75
33.82,7470.75,9985.5625
33.84,7472.9375,9988.8125
33.86,7472.8125,9989.0625
33.88,7471.0625,9986.1875
33.9,7468.5,9982.5625
33.92,7471.25,9985.875
33.94,7473.3125,9989.3125
33.96,7476.9375,9994.5625
33.980000000000004,7478.375,9996.9375
34.0,7480.1875,9998.0
34.02,7481.9375,9999.1875
34.04,7482.8125,9999.3125
34.06,7483.375,10000.6875
34.08,7485.875,10004.0625
34.1,7488.375,10008.375
34.12,7489.4375,10010.4375
34.14,7492.75,10016.6875
34.160000000000004,7496.0625,10023.875
34.18,7496.4375,10031.0625
34.2,7494.9375,10035.0
34.22,7499.5,10041.1875
34.24,7499.8125,10040.8125
34.26,7499.375,10041.4375
34.28,7499.3125,10042.3125
34.300000000000004,7502.125,10045.9375
34.32,7503.625,10047.5
34.34,7504.6875,10049.5
34.36,7506.5,10052.375
34.38,7508.25,10056.25
34.4,7516.375,10067.1875
34.42,7527.0625,10077.3125
34.44,7537.0625,10084.5
34.46,7546.4375,10091.875
34.480000000000004,7555.75,10102.4375
34.5,7563.625,10114.0
34.52,7569.0625,10122.1875
34.54,7572.9375,10126.75
34.56,7575.9375,10129.0
34.58,7578.0,10130.5625
34.6,7580.125,10132.25
34.62,7578.0625,10130.5625
34.64,7573.1875,10125.4375
34.660000000000004,7567.5625,10119.625
34.68,7562.6875,10114.5
34.7,7559.25,10110.875
34.72,7555.9375,10106.9375
34.74,7553.0625,10103.625
34.76,7551.3125,10102.1875
34.78,7551.9375,10104.8125
34.800000000000004,7553.6875,10108.125
34.82,7556.4375,10112.375
34.84,7558.625,10116.5
34.86,7559.625,10118.5
34.88,7558.9375,10118.0625
34.9,7559.125,10117.9375
34.92,7560.125,10118.125
34.94,7559.3125,10117.6875
34.96,7555.375,10112.5
34.980000000000004,7551.6875,10107.25
35.0,7549.25,10104.625
35.02,7547.125,10100.6875
35.04,7543.1875,10091.3125
35.06,7539.375,10084.0625
35.08,7533.5,10071.4375
35.1,7522.25,10043.5
35.12,7512.875,10016.0625
35.14,7510.4375,10007.5
35.160000000000004,7511.0,10006.5
35.18,7512.6875,10011.6875
35.2,7517.6875,10024.625
35.22,7523.1875,10036.0
35.24,7525.6875,10037.5
35.26,7524.625,10026.375
35.28,7519.3125,10015.8125
35.300000000000004,7518.75,10016.6875
35.32,7523.5625,10020.75
35.34,7528.4375,10025.5
35.36,7534.5,10034.125
35.38,7538.5,10040.875
35.4,7541.5,10048.375
35.42,7546.1875,10060.125
35.44,7552.9375,10074.9375
35.46,7552.4375,10076.5625
35.480000000000004,7552.875,10079.0625
35.5,7555.0,10085.125
35.52,7562.875,10095.875
35.54,7577.0,10111.6875
35.56,7592.8125,10123.5625
35.58,7602.5625,10123.4375
35.6,7600.0,10103.9375
35.62,7584.3125,10078.5
35.64,7541.4375,10039.0625
35.660000000000004,8717.3125,10720.9375
35.68,10985.3125,11239.0625
35.7,10750.375,10881.5
35.72,10490.625,10624.25
35.74,9973.875,10163.0
35.76,9554.0625,9820.75
35.78,9583.9375,9880.875
35.800000000000004,9810.5625,10053.875
35.82,9606.125,9809.0
35.84,9117.1875,9357.6875
35.86,8820.625,9101.1875
35.88,8804.0,9084.125
35.9,8809.9375,9066.125
35.92,8822.75,9087.0625
35.94,8943.75,9196.75
35.96,8698.4375,8979.25
35.980000000000004,7894.5,8242.75
36.0,7081.625,7506.375
36.02,6756.0625,7189.0625
36.04,6388.3125,6822.5625
36.06,5479.8125,5942.25
36.08,4521.25,5043.9375
36.1,4059.9375,4611.125
36.12,3935.125,4465.5625
36.14,3880.9375,4347.375
36.160000000000004,3821.125,4219.4375
36.18,3968.6875,4298.75
36.2,4141.9375,4409.875
36.22,4713.125,5009.625
36.24,5418.0,5730.4375
36.26,5909.4375,6270.4375
36.28,7813.625,8170.625
36.300000000000004,9098.625,10244.1875
36.32,7817.375,10153.0625
36.34,7500.8125,10042.3125
36.36,7382.875,9899.75
36.38,7340.6875,9848.8125
36.4,7322.9375,9837.25
36.42,7322.9375,9846.75
36.44,7331.625,9865.0625
36.46,7342.125,9886.6875
36.480000000000004,7351.625,9906.25
36.5,7354.75,9912.125
36.52,7352.25,9911.5
36.54,7346.5625,9908.625
36.56,7341.125,9904.1875
36.58,7344.75,9910.6875
36.6,7352.0,9921.1875
36.62,7343.9375,9904.4375
36.64,7322.75,9856.5
36.660000000000004,7305.9375,9818.375
36.68,7299.4375,9807.0
36.7,7299.875,9809.5
36.72,7300.4375,9812.0
36.74,7299.4375,9812.8125
36.76,7295.75,9808.6875
36.78,7283.8125,9792.875
36.800000000000004,7269.0,9775.0
36.82,7244.6875,9761.625
36.84,7221.25,9766.9375
36.86,7211.5625,9789.0
36.88,7215.4375,9803.375
36.9,7238.3125,9805.75
36.92,7294.5625,9824.125
36.94,7435.9375,9866.875
36.96,8425.875,9940.625
36.980000000000004,8837.4375,9927.4375
37.0,8836.25,10082.0625
37.02,8584.75,10138.4375
37.04,8088.75,10257.375
37.06,7975.1875,10231.625
37.08,7839.1875,10255.375
37.1,7299.0,10204.5625
37.12,7472.0,10321.75
37.14,7586.6875,10409.875
37.160000000000004,7761.5625,10557.4375
37.18,7913.5625,10737.1875
37.2,8142.375,10842.125
37.22,7879.25,10709.625
37.24,7585.625,10593.875
37.26,7505.0,10528.1875
37.28,7514.8125,10523.4375
37.300000000000004,7573.0625,10570.75
37.32,7671.5,10625.5625
37.34,8172.1875,10922.8125
37.36,10076.5,11673.75
37.38,10528.5625,11583.4375
37.4,10234.0625,11442.5625
37.42,9944.125,11449.0625
37.44,9371.875,11534.25
37.46,8398.125,11032.8125
37.480000000000004,8028.8125,10842.0625
37.5,7917.75,10732.8125
37.52,7837.9375,10620.4375
37.54,7797.25,10552.8125
37.56,7782.875,10523.0
37.58,7775.125,10503.9375
37.6,7779.625,10505.5
37.62,7786.75,10513.8125
37.64,7786.0,10515.1875
37.660000000000004,7784.8125,10516.9375
37.68,7786.25,10521.1875
37.7,7786.25,10523.375
37.72,7785.5625,10525.5
37.74,7785.25,10527.8125
37.76,7783.75,10528.1875
37.78,7776.75,10519.5625
37.800000000000004,7765.25,10498.3125
37.82,7750.8125,10468.1875
37.84,7741.25,10444.625
37.86,7734.1875,10423.875
37.88,7719.375,10390.625
37.9,7700.3125,10357.125
37.92,7676.875,10318.8125
37.94,7653.0,10284.0625
37.96,7618.25,10247.375
37.980000000000004,7587.3125,10223.9375
38.0,7561.5,10194.6875
38.02,7537.6875,10165.25
38.04,7524.5625,10150.8125
38.06,7521.875,10149.1875
38.08,7523.375,10154.625
38.1,7528.4375,10160.5
38.12,7535.25,10166.3125
38.14,7541.75,10163.9375
38.160000000000004,7549.6875,10160.4375
38.18,7558.125,10158.5
38.2,7553.5625,10153.875
38.22,7545.8125,10146.3125
38.24,7546.625,10146.0625
38.26,7545.0,10147.1875
38.28,7538.125,10146.125
38.300000000000004,7535.375,10148.0
38.32,7541.0,10156.625
38.34,7548.75,10166.4375
38.36,7560.0,10181.9375
38.38,7571.9375,10194.875
38.4,7584.75,10206.8125
38.42,7597.375,10197.4375
38.44,7596.875,10177.8125
38.46,7603.6875,10210.9375
38.480000000000004,7611.875,10226.3125
38.5,7615.3125,10232.0625
38.52,7619.5,10237.375
38.54,7624.1875,10244.1875
38.56,7630.125,10252.6875
38.58,7634.25,10258.5625
38.6,7630.875,10255.875
38.62,7620.375,10242.9375
38.64,7611.0625,10233.6875
38.660000000000004,7602.0,10225.125
38.68,7587.3125,10212.0
38.7,7564.625,10195.1875
38.72,7548.8125,10182.0
38.74,7536.625,10175.25
38.76,7530.0625,10173.625
38.78,7521.9375,10168.625
38.800000000000004,7505.6875,10160.5
38.82,7487.5,10151.375
38.84,7469.375,10142.4375
38.86,7452.9375,10130.75
38.88,7438.125,10120.375
38.9,7428.875,10111.375
38.92,7427.25,10108.75
38.94,7431.1875,10112.25
38.96,7433.8125,10112.75
38.980000000000004,7433.3125,10108.1875
39.0,7434.25,10103.625
39.02,7442.5625,10105.625
39.04,7454.375,10107.3125
39.06,7465.625,10109.5
39.08,7470.75,10105.25
39.1,7472.375,10093.25
39.12,7472.8125,10080.8125
39.14,7472.375,10074.5625
39.160000000000004,7470.5,10076.8125
39.18,7476.375,10087.3125
39.2,7503.625,10121.0625
39.22,7536.625,10161.4375
39.24,7554.0,10190.375
39.26,7557.4375,10210.6875
39.28,7564.125,10238.6875
39.300000000000004,7565.5,10269.375
39.32,7565.75,10299.0625
39.34,7575.125,10342.9375
39.36,7587.375,10382.3125
39.38,7588.5625,10394.5
39.4,7587.1875,10392.625
39.42,7588.375,10392.25
39.44,7592.0,10396.625
39.46,7592.8125,10401.3125
39.480000000000004,7591.1875,10400.5
39.5,7588.375,10398.25
39.52,7586.5,10397.3125
39.54,7584.875,10396.0
39.56,7583.375,10395.1875
39.58,7582.125,10395.75
39.6,7580.875,10395.6875
39.62,7579.5625,10396.125
39.64,7580.875,10399.3125
39.660000000000004,7583.1875,10402.5
39.68,7585.9375,10404.75
39.7,7586.5625,10405.25
39.72,7584.375,10404.0625
39.74,7582.0,10401.9375
39.76,7580.3125,10400.75
39.78,7578.25,10400.0625
39.800000000000004,7576.1875,10398.75
39.82,7575.375,10396.3125
39.84,7575.625,10393.0625
39.86,7576.3125,10388.3125
39.88,7567.8125,10358.3125
39.9,7551.9375,10300.1875
39.92,7543.9375,10264.4375
39.94,7542.0,10248.25
39.96,7541.5625,10236.6875
39.980000000000004,7541.5625,10224.8125
40.0,7541.0,10214.625
40.02,7542.875,10207.5
40.04,7545.9375,10202.25
40.06,7546.875,10197.125
40.08,7548.9375,10192.1875
40.1,7550.0625,10189.625
40.12,7552.125,10187.625
40.14,7557.3125,10187.5
40.160000000000004,7566.0,10192.1875
40.18,7573.4375,10200.8125
40.2,7579.4375,10211.3125
40.22,7583.0,10219.375
40.24,7586.25,10223.125
40.26,7588.25,10222.6875
40.28,7585.9375,10219.5625
40.300000000000004,7581.0625,10216.625
40.32,7572.3125,10217.4375
40.34,7566.75,10229.25
40.36,7558.1875,10247.0
40.38,7547.3125,10260.875
40.4,7538.9375,10269.5625
40.42,7531.4375,10272.125
40.44,7531.5,10277.6875
40.46,7534.9375,10283.75
40.480000000000004,7538.0,10289.3125
40.5,7540.125,10293.4375
40.52,7544.6875,10295.0625
40.54,7551.3125,10296.3125
40.56,7558.375,10293.75
40.58,7564.75,10285.375
40.6,7569.3125,10274.25
40.62,7574.4375,10262.3125
40.64,7585.375,10252.5625
40.660000000000004,7605.6875,10253.1875
40.68,7613.6875,10254.5625
40.7,7620.1875,10260.9375
40.72,7627.25,10269.25
40.74,7633.4375,10277.125
40.76,7637.625,10283.5625
40.78,7640.8125,10286.875
40.800000000000004,7643.9375,10291.4375
40.82,7647.625,10293.9375
40.84,7651.6875,10297.1875
40.86,7655.875,10301.8125
40.88,7658.5,10305.375
40.9,7646.4375,10296.3125
40.92,7642.125,10292.4375
40.94,7642.0625,10293.25
40.96,7642.8125,10294.75
40.980000000000004,7643.3125,10294.75
41.0,7644.25,10293.5
41.02,7644.0,10290.8125
41.04,7643.25,10288.5625
41.06,7641.9375,10287.5625
41.08,7639.875,10287.3125
41.1,7637.8125,10287.375
41.12,7635.25,10287.0
41.14,7632.75,10286.75
41.160000000000004,7624.6875,10283.75
41.18,7608.4375,10271.5
41.2,7588.8125,10257.0625
41.22,7575.6875,10250.375
41.24,7567.0625,10249.0
41.26,7560.5625,10249.6875
41.28,7559.3125,10254.875
41.300000000000004,7563.625,10261.4375
41.32,7568.1875,10266.5625
41.34,7570.5,10271.5
41.36,7571.5625,10277.5
41.38,7572.6875,10283.1875
41.4,7574.4375,10288.875
41.42,7576.5,10295.1875
41.44,7577.1875,10300.0625
41.46,7577.625,10304.0625
41.480000000000004,7579.5625,10301.5
41.5,7581.3125,10300.8125
41.52,7582.0,10300.9375
41.54,7581.375,10301.4375
41.56,7579.1875,10304.3125
41.58,7581.0625,10306.4375
41.6,7583.375,10307.6875
41.62,7587.0,10307.0625
41.64,7589.125,10306.6875
41.660000000000004,7590.0,10307.4375
41.68,7589.8125,10306.75
41.7,7588.25,10305.125
41.72,7587.3125,10299.375
41.74,7584.25,10290.0625
41.76,7577.9375,10277.6875
41.78,7570.1875,10265.375
41.800000000000004,7563.5,10255.6875
41.82,7561.0625,10247.5625
41.84,7562.0,10245.0
41.86,7562.6875,10244.8125
41.88,7562.375,10243.5
41.9,7562.0625,10241.625
41.92,7564.625,10242.9375
41.94,7568.5625,10244.4375
41.96,7573.0625,10246.375
41.980000000000004,7578.0625,10247.25
42.0,7584.25,10248.4375
42.02,7592.375,10249.0625
42.04,7598.375,10250.1875
42.06,7602.25,10251.9375
42.08,7606.6875,10252.25
42.1,7611.125,10251.4375
42.12,7615.25,10249.875
42.14,7618.375,10249.25
42.160000000000004,7620.375,10249.9375
42.18,7620.875,10250.375
42.2,7619.875,10250.125
42.22,7616.625,10247.9375
42.24,7612.4375,10245.875
42.26,7606.5625,10242.9375
42.28,7597.875,10235.3125
42.300000000000004,7587.5,10221.6875
42.32,7576.875,10210.0625
42.34,7568.75,10204.4375
42.36,7563.8125,10206.0
42.38,7561.25,10210.8125
42.4,7560.0,10215.125
42.42,7559.3125,10217.25
42.44,7558.6875,10219.9375
42.46,7557.25,10223.4375
42.480000000000004,7554.3125,10226.6875
42.5,7551.9375,10230.5
42.52,7548.0625,10234.0
42.54,7545.1875,10237.6875
42.56,7543.8125,10243.0625
42.58,7542.875,10246.8125
42.6,7544.0,10252.375
42.62,7545.875,10257.5625
42.64,7547.5,10264.5
42.660000000000004,7547.125,10269.25
42.68,7544.8125,10271.875
42.7,7543.75,10273.3125
42.72,7543.75,10271.6875
42.74,7542.0625,10272.5
42.76,7539.6875,10272.875
42.78,7536.625,10272.1875
42.800000000000004,7534.625,10270.6875
42.82,7530.25,10265.125
42.84,7525.5625,10259.375
42.86,7521.25,10251.1875
42.88,7518.625,10243.9375
42.9,7518.125,10239.3125
42.92,7518.1875,10232.6875
42.94,7517.8125,10225.375
42.96,7517.5,10217.375
42.980000000000004,7518.0625,10211.6875
43.0,7520.1875,10209.3125
43.02,7522.625,10209.5
43.04,7526.1875,10212.0625
43.06,7530.0625,10215.6875
43.08,7532.375,10217.5625
43.1,7533.1875,10219.0625
43.12,7534.25,10219.8125
43.14,7534.75,10220.4375
43.160000000000004,7535.0625,10221.625
43.18,7534.3125,10224.5
43.2,7532.6875,10227.5
43.22,7528.9375,10228.4375
43.24,7523.125,10226.25
43.26,7517.375,10222.3125
43.28,7509.9375,10214.375
43.300000000000004,7506.8125,10215.6875
43.32,7506.25,10220.25
43.34,7510.0625,10232.8125
43.36,7514.8125,10246.25
43.38,7518.3125,10257.0625
43.4,7519.8125,10264.875
43.42,7520.5,10270.4375
43.44,7520.75,10274.3125
43.46,7520.8125,10278.5625
43.480000000000004,7521.1875,10282.25
43.5,7522.8125,10285.625
43.52,7543.625,10288.625
43.54,7567.5,10303.5
43.56,7581.1875,10315.0
43.58,7588.5625,10319.125
43.6,7591.9375,10318.0
43.62,7591.5,10313.5625
43.64,7590.0625,10309.4375
43.660000000000004,7588.375,10306.1875
43.68,7585.8125,10303.1875
43.7,7583.9375,10301.1875
43.72,7582.9375,10300.5
43.74,7580.375,10300.25
43.76,7578.625,10300.875
43.78,7576.875,10301.4375
43.800000000000004,7575.0625,10302.5625
43.82,7572.8125,10303.0625
43.84,7569.3125,10303.5625
43.86,7572.875,10325.875
43.88,7591.6875,10384.875
43.9,7595.9375,10410.5
43.92,7590.6875,10412.8125
43.94,7588.8125,10417.5625
43.96,7587.75,10421.6875
43.980000000000004,7585.375,10422.4375
44.0,7583.25,10421.9375
44.02,7580.625,10420.5625
44.04,7578.125,10419.25
44.06,7575.6875,10418.5
44.08,7572.6875,10416.6875
44.1,7568.4375,10411.875
44.12,7563.875,10405.9375
44.14,7559.4375,10396.625
44.160000000000004,7566.0625,10406.875
44.18,7571.5625,10395.375
44.2,7564.625,10355.25
44.22,7554.875,10313.1875
44.24,7550.0,10298.5625
44.26,7548.0625,10300.125
44.28,7547.1875,10303.6875
44.300000000000004,7547.875,10309.0625
44.32,7548.375,10310.25
44.34,7549.1875,10304.4375
44.36,7548.5625,10289.25
44.38,7548.4375,10267.5625
44.4,7547.75,10241.9375
44.42,7549.1875,10227.25
44.44,7554.0,10225.0
44.46,7566.5625,10230.75
44.480000000000004,7582.5625,10240.1875
44.5,7599.9375,10252.5625
44.52,7615.5,10263.1875
44.54,7630.25,10272.0625
44.56,7646.5,10281.5
44.58,7660.625,10288.5
44.6,7671.75,10293.5
44.62,7681.875,10298.875
44.64,7690.375,10303.875
44.660000000000004,7694.4375,10306.9375
44.68,7697.375,10309.0
44.7,7702.375,10312.0625
44.72,7707.1875,10314.75
44.74,7710.0,10314.5625
44.76,7711.1875,10314.3125
44.78,7713.4375,10313.875
44.800000000000004,7715.9375,10314.875
44.82,7720.8125,10316.8125
44.84,7726.8125,10320.3125
44.86,7733.875,10323.625
44.88,7740.0,10325.4375
44.9,7745.125,10326.9375
44.92,7747.5625,10325.5
44.94,7747.9375,10322.25
44.96,7745.4375,10314.1875
44.980000000000004,7742.625,10306.1875
45.0,7742.75,10302.25
45.02,7742.0625,10297.6875
45.04,7739.375,10292.75
45.06,7741.0625,10292.0625
45.08,7749.8125,10300.1875
45.1,7760.625,10312.9375
45.12,7771.375,10324.375
45.14,7781.1875,10334.0
45.160000000000004,7789.375,10341.3125
45.18,7797.0625,10346.5
45.2,7804.25,10350.375
45.22,7809.6875,10354.5
45.24,7813.125,10356.9375
45.26,7815.1875,10359.3125
45.28,7815.5625,10359.9375
45.300000000000004,7814.8125,10358.9375
45.32,7812.3125,10355.5
45.34,7808.375,10352.1875
45.36,7803.625,10347.5
45.38,7798.1875,10343.8125
45.4,7791.9375,10339.25
45.42,7785.25,10332.6875
45.44,7774.75,10321.5625
45.46,7762.0,10307.625
45.480000000000004,7749.625,10295.375
45.5,7738.875,10287.9375
45.52,7729.75,10283.75
45.54,7723.5,10282.4375
45.56,7720.4375,10286.375
45.58,7719.3125,10293.5625
45.6,7719.875,10302.9375
45.62,7718.875,10307.6875
45.64,7718.5,10311.5625
45.660000000000004,7717.625,10314.5625
45.68,7717.0625,10317.375
45.7,7716.375,10319.375
45.72,7715.0625,10320.6875
45.74,7713.375,10323.875
45.76,7712.0625,10328.8125
45.78,7708.6875,10333.625
45.800000000000004,7706.3125,10335.5
45.82,7704.5625,10338.125
45.84,7705.375,10342.0625
45.86,7705.75,10339.5
45.88,7704.9375,10336.875
45.9,7704.5,10333.0
45.92,7704.375,10325.875
45.94,7703.5625,10315.0
45.96,7703.0625,10305.5
45.980000000000004,7702.375,10302.3125
46.0,7702.5625,10302.0625
46.02,7703.125,10300.25
46.04,7703.9375,10292.25
46.06,7704.875,10283.0625
46.08,7704.25,10277.1875
46.1,7702.6875,10272.8125
46.12,7700.5,10269.75
46.14,7698.9375,10268.5
46.160000000000004,7695.75,10267.8125
46.18,7689.9375,10263.25
46.2,7685.9375,10263.0
46.22,7682.6875,10265.8125
46.24,7680.375,10270.1875
46.26,7679.8125,10276.875
46.28,7679.3125,10281.875
46.300000000000004,7679.5625,10290.9375
46.32,7679.5,10299.625
46.34,7678.625,10304.3125
46.36,7677.25,10303.6875
46.38,7675.0625,10298.75
46.4,7675.4375,10301.625
46.42,7677.4375,10304.4375
46.44,7679.4375,10303.375
46.46,7680.875,10300.6875
46.480000000000004,7682.9375,10296.0625
46.5,7685.8125,10288.8125
46.52,7691.3125,10285.25
46.54,7696.5625,10284.9375
46.56,7698.5,10285.0
46.58,7699.0,10282.5625
46.6,7699.1875,10278.4375
46.62,7700.125,10273.0625
46.64,7703.3125,10267.375
46.660000000000004,7706.625,10264.625
46.68,7708.5625,10265.3125
46.7,7709.5625,10265.75
46.72,7711.8125,10264.6875
46.74,7714.25,10263.9375
46.76,7714.6875,10262.3125
46.78,7715.125,10258.75
46.800000000000004,7716.0,10254.375
46.82,7717.1875,10250.5625
46.84,7719.125,10247.5
46.86,7721.25,10246.0
46.88,7722.1875,10244.125
46.9,7720.5625,10242.125
46.92,7716.875,10239.0
46.94,7712.25,10236.1875
46.96,7705.1875,10233.0625
46.980000000000004,7694.8125,10228.0
47.0,7682.75,10221.875
47.02,7670.4375,10216.4375
47.04,7660.5625,10213.8125
47.06,7654.0625,10214.8125
47.08,7649.8125,10217.0
47.1,7648.125,10219.75
47.12,7647.5625,10222.25
47.14,7646.5625,10223.0
47.160000000000004,7644.8125,10223.4375
47.18,7643.875,10223.4375
47.2,7643.125,10223.6875
47.22,7641.75,10224.5625
47.24,7641.3125,10227.4375
47.26,7640.25,10230.75
47.28,7640.5,10234.0625
47.300000000000004,7640.875,10235.25
47.32,7641.1875,10234.5625
47.34,7640.8125,10233.375
47.36,7640.0,10232.75
47.38,7639.375,10233.4375
47.4,7638.5625,10235.625
47.42,7637.6875,10236.375
47.44,7636.1875,10234.4375
47.46,7635.3125,10225.9375
47.480000000000004,7633.625,10210.75
47.5,7633.4375,10199.75
47.52,7635.5625,10189.75
47.54,7639.625,10180.6875
47.56,7644.1875,10175.5625
47.58,7649.0625,10172.875
47.6,7657.1875,10171.8125
47.62,7671.625,10175.875
47.64,7689.875,10189.8125
47.660000000000004,7707.0,10206.75
47.68,7721.6875,10223.0
47.7,7734.4375,10236.875
47.72,7742.375,10244.8125
47.74,7744.375,10245.4375
47.76,7741.0625,10240.5625
47.78,7734.8125,10230.5
47.800000000000004,7724.625,10216.0625
47.82,7713.8125,10202.375
47.84,7703.5625,10193.4375
47.86,7693.25,10189.125
47.88,7683.0625,10189.3125
47.9,7674.25,10195.375
47.92,7667.1875,10204.0
47.94,7663.375,10211.3125
47.96,7662.125,10218.25
47.980000000000004,7661.6875,10224.375
48.0,7661.9375,10230.25
48.02,7662.4375,10235.9375
48.04,7663.3125,10242.0
48.06,7665.625,10249.875
48.08,7668.6875,10259.6875
48.1,7670.4375,10265.8125
48.120000000000005,7671.25,10270.0625
48.14,7671.875,10273.375
48.160000000000004,7671.375,10277.8125
48.18,7668.375,10284.5625
48.2,7665.5625,10288.875
48.22,7666.3125,10293.5625
48.24,7666.875,10298.75
48.26,7667.1875,10302.625
48.28,7666.875,10305.6875
48.300000000000004,7668.1875,10309.8125
48.32,7671.5,10315.875
48.34,7672.3125,10318.625
48.36,7672.8125,10321.3125
48.38,7673.25,10323.8125
48.4,7673.375,10326.5625
48.42,7674.1875,10329.0
48.44,7674.5625,10331.875
48.46,7675.4375,10335.5
48.480000000000004,7676.0,10338.625
48.5,7677.0,10342.0
48.52,7676.9375,10345.375
48.54,7677.5,10348.0
48.56,7677.9375,10350.75
48.58,7677.875,10352.5625
48.6,7678.0,10354.0625
48.620000000000005,7677.9375,10355.3125
48.64,7677.9375,10355.9375
48.660000000000004,7677.75,10357.375
48.68,7677.5625,10357.625
48.7,7677.625,10358.8125
48.72,7677.5,10360.125
48.74,7677.6875,10361.4375
48.76,7677.6875,10362.625
48.78,7677.875,10363.875
48.800000000000004,7677.6875,10365.125
48.82,7677.25,10365.5625
48.84,7676.875,10365.9375
48.86,7676.6875,10366.4375
48.88,7676.375,10367.1875
48.9,7676.0625,10367.875
48.92,7675.1875,10368.6875
48.94,7674.8125,10369.4375
48.96,7674.3125,10369.875
48.980000000000004,7673.25,10370.25
49.0,7672.3125,10370.8125
49.02,7671.3125,10370.8125
49.04,7670.0625,10371.3125
49.06,7669.125,10371.4375
49.08,7668.375,10371.8125
49.1,7667.125,10372.8125
49.120000000000005,7665.8125,10373.25
49.14,7664.875,10373.3125
49.160000000000004,7663.3125,10373.375
49.18,7662.25,10373.125
49.2,7660.5625,10372.6875
49.22,7659.3125,10373.5625
49.24,7657.75,10373.3125
49.26,7656.125,10373.1875
49.28,7654.25,10372.375
49.300000000000004,7652.25,10371.0
49.32,7650.4375,10369.125
49.34,7647.8125,10367.25
49.36,7645.375,10365.125
49.38,7642.75,10362.0625
49.4,7640.625,10359.25
49.42,7637.9375,10356.6875
49.44,7636.1875,10354.625
49.46,7633.75,10352.25
49.480000000000004,7631.6875,10349.3125
49.5,7629.5625,10346.75
49.52,7626.4375,10342.3125
49.54,7624.0,10339.125
49.56,7621.8125,10336.875
49.58,7620.0625,10334.5625
49.6,7618.125,10332.25
49.620000000000005,7616.125,10329.8125
49.64,7614.1875,10327.5625
49.660000000000004,7611.875,10325.5
49.68,7610.125,10323.625
49.7,7607.875,10321.5
49.72,7605.8125,10319.4375
49.74,7603.75,10317.0
49.76,7601.5,10314.5
49.78,7599.125,10311.8125
49.800000000000004,7596.75,10309.25
49.82,7594.625,10306.8125
49.84,7591.8125,10304.5
49.86,7589.4375,10302.3125
49.88,7587.625,10300.625
49.9,7584.8125,10298.3125
49.92,7582.875,10296.375
49.94,7579.9375,10293.5
49.96,7578.375,10292.0625
49.980000000000004,7576.0625,10290.375
50.0,7574.0,10289.3125
50.02,7571.9375,10287.625
50.04,7570.0,10285.375
50.06,7568.1875,10284.0
50.08,7566.3125,10281.8125
50.1,7564.5625,10279.625
50.120000000000005,7562.5625,10277.4375
50.14,7560.5625,10275.625
50.160000000000004,7558.75,10274.0625
50.18,7557.0,10272.0
50.2,7555.1875,10270.5625
50.22,7553.4375,10268.8125
50.24,7552.1875,10267.75
50.26,7550.5625,10266.5
50.28,7549.0625,10265.125
50.300000000000004,7547.9375,10264.0625
50.32,7546.5625,10262.4375
50.34,7545.4375,10261.875
50.36,7544.25,10261.25
50.38,7542.5625,10259.875
50.4,7541.5,10258.625
50.42,7540.0625,10257.375
50.44,7539.0625,10256.375
50.46,7537.875,10256.3125
50.480000000000004,7537.125,10256.1875
50.5,7536.125,10255.4375
50.52,7534.625,10254.5
50.54,7534.125,10254.0625
50.56,7533.0,10253.5
50.58,7531.625,10253.375
50.6,7531.0,10253.0625
50.620000000000005,7529.9375,10253.0625
50.64,7529.25,10252.625
50.660000000000004,7529.0,10253.5625
50.68,7527.25,10251.6875
50.7,7526.4375,10251.1875
50.72,7524.9375,10249.4375
50.74,7524.1875,10249.75
50.76,7523.0,10248.4375
50.78,7521.9375,10248.4375
50.800000000000004,7521.125,10247.5
50.82,7520.3125,10246.625
50.84,7519.25,10244.125
50.86,7517.875,10242.375
50.88,7516.9375,10240.8125
50.9,7515.625,10239.1875
50.92,7514.625,10237.8125
50.94,7514.0625,10237.1875
50.96,7513.625,10236.0625
50.980000000000004,7512.75,10235.9375
51.0,7511.875,10234.375
51.02,7511.3125,10234.5
51.04,7510.375,10234.25
51.06,7509.625,10233.6875
51.08,7509.3125,10233.375
51.1,7508.75,10233.0625
51.120000000000005,7508.375,10232.75
51.14,7507.8125,10233.125
51.160000000000004,7507.25,10233.1875
51.18,7506.5,10232.9375
51.2,7506.0625,10232.375
51.22,7505.5625,10232.625
51.24,7505.5625,10233.0625
51.26,7505.25,10232.9375
51.28,7504.6875,10233.3125
51.300000000000004,7504.5,10232.9375
51.32,7503.25,10232.6875
51.34,7503.5625,10233.125
51.36,7502.5625,10232.5
51.38,7502.125,10232.8125
51.4,7501.625,10232.0
51.42,7501.375,10232.4375
51.44,7501.125,10232.875
51.46,7500.6875,10233.0
51.480000000000004,7500.0625,10233.4375
51.5,7500.1875,10234.125
51.52,7500.0625,10234.3125
51.54,7498.9375,10233.6875
51.56,7497.9375,10232.5
51.58,7496.875,10232.25
51.6,7497.1875,10232.875
51.620000000000005,7497.0625,10233.125
51.64,7496.6875,10232.375
51.660000000000004,7496.4375,10232.125
51.68,7495.875,10231.9375
51.7,7496.0,10231.75
51.72,7495.3125,10230.9375
51.74,7493.875,10228.75
51.76,7493.375,10227.4375
51.78,7491.75,10226.4375
51.800000000000004,7491.4375,10225.5
51.82,7490.3125,10224.0625
51.84,7489.5625,10223.3125
51.86,7488.625,10221.4375
51.88,7488.0625,10221.625
51.9,7487.3125,10220.1875
51.92,7486.8125,10219.6875
51.94,7485.8125,10218.9375
51.96,7485.0,10217.625
51.980000000000004,7483.9375,10216.8125
52.0,7483.0625,10215.625
52.02,7482.0625,10214.125
52.04,7480.625,10212.5
52.06,7479.6875,10211.375
52.08,7478.0625,10209.25
52.1,7476.3125,10207.6875
52.120000000000005,7474.5,10205.5
52.14,7472.6875,10204.0625
52.160000000000004,7470.8125,10201.8125
52.18,7468.3125,10200.0625
52.2,7466.6875,10198.3125
52.22,7465.0625,10196.0
52.24,7463.375,10194.5
52.26,7460.9375,10191.625
52.28,7458.1875,10187.875
52.300000000000004,7456.625,10186.375
52.32,7454.3125,10184.0
52.34,7451.9375,10182.3125
52.36,7449.9375,10181.0
52.38,7447.875,10178.8125
52.4,7445.5,10176.125
52.42,7441.8125,10172.25
52.44,7438.9375,10169.5
52.46,7436.0625,10166.1875
52.480000000000004,7433.8125,10163.75
52.5,7430.9375,10160.6875
52.52,7428.3125,10157.6875
52.54,7425.625,10154.9375
52.56,7423.25,10152.0625
52.58,7421.1875,10149.5625
52.6,7418.1875,10146.0
52.620000000000005,7415.625,10143.125
52.64,7413.0625,10139.3125
52.660000000000004,7410.25,10135.875
52.68,7407.3125,10133.375
52.7,7404.5625,10129.8125
52.72,7402.375,10127.8125
52.74,7398.9375,10123.25
52.76,7396.875,10122.125
52.78,7394.5,10119.3125
52.800000000000004,7392.1875,10116.75
52.82,7389.8125,10114.5
52.84,7387.0625,10112.625
52.86,7384.4375,10109.25
52.88,7382.0,10106.8125
52.9,7379.5,10103.875
52.92,7376.5625,10101.0
52.94,7373.9375,10098.375
52.96,7371.1875,10095.5625
52.980000000000004,7368.5625,10093.4375
53.0,7365.9375,10091.0625
53.02,7363.375,10089.125
53.04,7361.0,10087.1875
53.06,7358.3125,10084.6875
53.08,7355.5625,10082.25
53.1,7352.6875,10079.5
53.120000000000005,7350.3125,10076.625
53.14,7347.9375,10075.0625
53.160000000000004,7344.8125,10071.875
53.18,7342.125,10069.25
53.2,7339.4375,10066.5
53.22,7336.4375,10063.875
53.24,7333.8125,10060.5625
53.26,7330.875,10057.625
53.28,7328.25,10055.0625
53.300000000000004,7325.6875,10052.8125
53.32,7323.1875,10050.6875
53.34,7320.375,10048.0625
53.36,7318.4375,10045.9375
53.38,7314.9375,10042.375
53.4,7312.4375,10039.25
53.42,7308.125,10034.375
53.44,7306.1875,10033.0625
53.46,7303.25,10029.8125
53.480000000000004,7301.0,10027.125
53.5,7298.625,10023.875
53.52,7296.3125,10020.5
53.54,7293.875,10017.3125
53.56,7291.3125,10013.9375
53.58,7289.6875,10010.875
53.6,7287.6875,10006.25
53.620000000000005,7284.8125,10002.0625
53.64,7282.3125,9998.625
53.660000000000004,7279.8125,9993.875
53.68,7276.6875,9988.4375
53.7,7274.0625,9985.3125
53.72,7271.0625,9980.3125
53.74,7268.6875,9977.375
53.76,7266.375,9973.8125
53.78,7264.25,9970.4375
53.800000000000004,7261.625,9966.6875
53.82,7258.6875,9962.375
53.84,7255.625,9957.6875
53.86,7252.625,9954.375
53.88,7249.75,9950.5
53.9,7246.6875,9946.75
53.92,7243.625,9943.6875
53.94,7241.0,9940.125
53.96,7237.6875,9936.1875
53.980000000000004,7235.375,9933.4375
54.0,7233.0,9930.5
54.02,7230.25,9927.625
54.04,7228.0625,9924.875
54.06,7226.25,9922.4375
54.08,7224.625,9919.9375
54.1,7223.5,9918.1875
54.120000000000005,7222.8125,9917.0
54.14,7222.4375,9916.25
54.160000000000004,7222.0,9915.5
54.18,7221.375,9913.875
54.2,7220.4375,9913.4375
54.22,7220.5,9913.5
54.24,7220.3125,9913.0
54.26,7220.0,9912.375
54.28,7219.8125,9912.0625
54.300000000000004,7220.5,9912.75
54.32,7220.1875,9911.8125
54.34,7217.9375,9910.1875
54.36,7217.25,9907.8125
54.38,7215.8125,9906.6875
54.4,7217.4375,9908.5625
54.42,7216.9375,9909.375
54.44,7218.0,9910.375
54.46,7218.25,9910.6875
54.480000000000004,7218.3125,9911.0625
54.5,7218.875,9911.5625
54.52,7219.375,9911.375
54.54,7220.25,9912.4375
54.56,7220.375,9912.3125
54.58,7220.75,9913.25
54.6,7221.0625,9914.625
54.620000000000005,7221.3125,9914.1875
54.64,7221.3125,9914.8125
54.660000000000004,7221.375,9914.375
54.68,7222.125,9916.125
54.7,7222.25,9916.375
54.72,7221.6875,9915.875
54.74,7220.1875,9913.0625
54.76,7218.9375,9911.5625
54.78,7217.8125,9909.8125
54.800000000000004,7215.5625,9905.8125
54.82,7212.0,9900.6875
54.84,7208.4375,9896.5625
54.86,7205.8125,9893.1875
54.88,7202.8125,9889.9375
54.9,7199.4375,9886.125
54.92,7195.625,9880.9375
54.94,7191.0,9874.6875
54.96,7186.0,9867.6875
54.980000000000004,7181.5,9859.8125
55.0,7177.3125,9854.625
55.02,7173.375,9850.1875
55.04,7169.125,9844.3125
55.06,7178.125,9837.4375
55.08,7173.3125,9831.3125
55.1,7169.75,9827.125
55.120000000000005,7166.5625,9821.9375
55.14,7163.5,9817.25
55.160000000000004,7160.625,9813.0
55.18,7157.0,9807.25
55.2,7149.875,9797.9375
55.22,7146.8125,9793.5
55.24,7140.9375,9784.5
55.26,7138.875,9782.4375
55.28,7134.1875,9775.6875
55.300000000000004,7131.0625,9770.9375
55.32,7128.75,9766.0625
55.34,7125.3125,9761.0625
55.36,7121.8125,9756.875
55.38,7117.25,9751.375
55.4,7112.9375,9745.3125
55.42,7110.0,9739.8125
55.44,7106.3125,9734.3125
55.46,7102.375,9728.3125
55.480000000000004,7098.375,9721.625
55.5,7094.4375,9714.875
55.52,7092.5,9711.125
55.54,7089.4375,9706.375
55.56,7088.1875,9703.125
55.58,7085.375,9698.8125
55.6,7083.125,9696.1875
55.620000000000005,7083.5625,9696.25
55.64,7078.875,9686.3125
55.660000000000004,7076.8125,9681.0
55.68,7074.25,9676.125
55.7,7072.1875,9671.3125
55.72,7069.1875,9666.875
55.74,7067.0625,9663.875
55.76,7065.3125,9661.75
55.78,7065.0625,9659.9375
55.800000000000004,7064.75,9659.3125
55.82,7064.125,9657.5
55.84,7063.6875,9655.9375
55.86,7063.75,9654.875
55.88,7063.5,9654.375
55.9,7063.625,9653.75
55.92,7063.3125,9653.3125
55.94,7063.75,9654.0625
55.96,7062.9375,9652.9375
55.980000000000004,7062.8125,9652.5625
56.0,7062.125,9652.3125
56.02,7063.375,9655.625
56.04,7061.75,9652.5625
56.06,7064.5625,9658.0625
56.08,7065.1875,9657.8125
56.1,7069.25,9665.8125
56.120000000000005,7072.125,9670.125
56.14,7074.5,9674.0
56.160000000000004,7076.625,9677.3125
56.18,7080.6875,9683.375
56.2,7083.125,9687.0625
56.22,7085.6875,9691.1875
56.24,7089.0,9695.5625
56.26,7091.9375,9699.5
56.28,7093.75,9702.125
56.300000000000004,7094.8125,9703.4375
56.32,7094.3125,9702.0625
56.34,7093.9375,9701.75
56.36,7093.875,9700.25
56.38,7094.0,9700.1875
56.4,7092.75,9697.625
56.42,7091.25,9694.6875
56.44,7089.125,9690.5625
56.46,7085.8125,9685.4375
56.480000000000004,7081.6875,9679.375
56.5,7078.625,9674.9375
56.52,7074.375,9668.875
56.54,7069.375,9660.875
56.56,7063.9375,9652.0625
56.58,7059.0625,9644.25
56.6,7053.9375,9637.1875
56.620000000000005,7050.6875,9633.5
56.64,7048.4375,9630.1875
56.660000000000004,7045.6875,9627.3125
56.68,7044.0,9622.4375
56.7,7039.9375,9617.375
56.72,7038.125,9614.3125
56.74,7036.5,9612.75
56.76,7036.0625,9612.125
56.78,7035.5625,9610.625
56.800000000000004,7033.5,9607.5
56.82,7034.0625,9610.875
56.84,7029.5625,9602.375
56.86,7028.8125,9601.9375
56.88,7024.375,9594.0
56.9,7024.125,9594.625
56.92,7021.1875,9592.1875
56.94,7020.3125,9590.0625
56.96,7019.1875,9588.5
56.980000000000004,7016.9375,9584.875
57.0,7015.25,9582.375
57.02,7014.0625,9580.75
57.04,7011.6875,9577.5
57.06,7009.4375,9574.375
57.08,7008.4375,9572.5625
57.1,7006.875,9571.0625
57.120000000000005,7005.1875,9568.4375
57.14,7003.125,9565.5
57.160000000000004,7001.625,9563.625
57.18,6999.6875,9561.625
57.2,7000.375,9561.875
57.22,6998.3125,9558.3125
57.24,6996.125,9557.125
57.26,6994.6875,9555.5
57.28,6995.0,9555.375
57.300000000000004,6993.125,9552.6875
57.32,6990.4375,9549.3125
57.34,6988.8125,9547.0625
57.36,6987.4375,9546.0625
57.38,6986.0625,9544.1875
57.4,6985.9375,9543.6875
57.42,6984.3125,9542.375
57.44,6983.0,9540.375
57.46,6980.75,9538.0
57.480000000000004,6979.9375,9537.75
57.5,6978.625,9535.6875
57.52,6976.4375,9534.0
57.54,6974.9375,9533.0625
57.56,6974.0,9531.6875
57.58,6973.1875,9531.0625
57.6,6972.6875,9531.1875
57.620000000000005,6971.5625,9528.9375
57.64,6967.9375,9524.625
57.660000000000004,6968.3125,9525.0
57.68,6964.4375,9518.5625
57.7,6965.0625,9521.3125
57.72,6961.9375,9516.8125
57.74,6961.1875,9516.8125
57.76,6960.0,9515.3125
57.78,6958.375,9512.1875
57.800000000000004,6956.6875,9510.6875
57.82,6954.375,9507.5625
57.84,6952.1875,9504.0
57.86,6951.8125,9503.0625
57.88,6952.0625,9503.0625
57.9,6951.875,9502.0625
57.92,6949.8125,9498.875
57.94,6949.875,9499.625
57.96,6946.875,9494.5
57.980000000000004,6946.75,9495.1875
58.0,6945.0625,9492.4375
58.02,6942.625,9489.375
58.04,6940.6875,9486.875
58.06,6938.1875,9483.625
58.08,6936.5625,9482.125
58.1,6935.5625,9480.5
58.120000000000005,6933.375,9477.5625
58.14,6931.375,9475.25
58.160000000000004,6929.4375,9473.1875
58.18,6927.625,9470.875
58.2,6926.0625,9468.9375
58.22,6924.3125,9467.8125
58.24,6923.0,9466.5
58.26,6922.0625,9466.0625
58.28,6920.9375,9465.125
58.300000000000004,6919.4375,9462.375
58.32,6918.125,9460.125
58.34,6916.75,9459.1875
58.36,6915.5,9457.4375
58.38,6914.8125,9456.75
58.4,6914.4375,9457.1875
58.42,6910.9375,9451.5
58.44,6910.25,9451.0
58.46,6907.875,9446.5
58.480000000000004,6907.625,9446.1875
58.5,6906.4375,9444.375
58.52,6904.6875,9441.6875
58.54,6902.9375,9439.8125
58.56,6902.1875,9438.5
58.58,6900.75,9435.1875
58.6,6898.5,9432.1875
58.620000000000005,6896.75,9429.875
58.64,6896.0,9429.375
58.660000000000004,6896.375,9430.1875
58.68,6897.0625,9431.125
58.7,6896.625,9430.125
58.72,6898.8125,9434.6875
58.74,6897.8125,9432.6875
58.76,6898.4375,9433.9375
58.78,6898.875,9435.25
58.800000000000004,6898.1875,9435.25
58.82,6898.0625,9434.75
58.84,6897.1875,9433.1875
58.86,6896.1875,9433.0
58.88,6896.4375,9434.1875
58.9,6896.3125,9435.0625
58.92,6895.125,9434.3125
58.94,6894.875,9434.3125
58.96,6894.625,9434.5625
58.980000000000004,6895.0625,9435.375
59.0,6895.625,9436.5625
59.02,6896.1875,9438.75
59.04,6897.6875,9441.625
59.06,6898.625,9443.3125
59.08,6899.0,9444.8125
59.1,6899.6875,9446.0
59.120000000000005,6899.375,9447.625
59.14,6901.375,9451.0625
59.160000000000004,6903.0625,9454.3125
59.18,6905.5625,9458.5
59.2,6903.0,9454.0
59.22,6905.875,9459.0625
59.24,6904.375,9455.8125
59.26,6907.875,9463.3125
59.28,6907.875,9464.0625
59.300000000000004,6910.0625,9468.4375
59.32,6911.75,9471.5625
59.34,6913.75,9474.625
59.36,6916.3125,9480.125
59.38,6918.1875,9483.4375
59.4,6920.125,9486.375
59.42,6923.25,9491.625
59.44,6926.9375,9498.75
59.46,6929.3125,9502.3125
59.480000000000004,6929.75,9503.25
59.5,6934.0,9510.75
59.52,6934.0,9510.4375
59.54,6937.875,9517.5
59.56,6938.3125,9517.875
59.58,6939.6875,9521.125
59.6,6940.625,9523.4375
59.620000000000005,6941.875,9526.25
59.64,6943.8125,9530.125
59.660000000000004,6944.25,9531.0625
59.68,6945.6875,9534.5625
59.7,6947.125,9538.75
59.72,6948.125,9540.75
59.74,6949.6875,9543.75
59.76,6951.75,9547.0
59.78,6953.625,9551.125
59.800000000000004,6954.9375,9553.375
59.82,6953.6875,9551.4375
59.84,6952.8125,9549.8125
59.86,6953.5625,9551.0
59.88,6954.25,9552.0625
59.9,6953.125,9550.0
59.92,6952.5625,9549.3125
59.94,6950.0625,9543.75
59.96,6950.5625,9543.5
59.980000000000004,6948.125,9538.9375
60.0,6947.1875,9537.3125
60.02,6943.5625,9532.25
60.04,6941.6875,9529.0625
60.06,6941.25,9527.875
60.08,6939.6875,9524.0625
60.1,6938.4375,9522.25
60.120000000000005,6936.625,9519.75
60.14,6934.875,9515.8125
60.160000000000004,6933.125,9512.6875
60.18,6931.375,9508.9375
60.2,6930.4375,9506.875
60.22,6928.6875,9504.5
60.24,6930.875,9508.0625
60.26,6927.875,9502.5625
60.28,6928.75,9504.8125
60.300000000000004,6929.4375,9506.5
60.32,6928.625,9505.9375
60.34,6926.25,9501.0625
60.36,6922.625,9494.6875
60.38,6919.25,9489.0
60.4,6916.0625,9484.5
60.42,6914.25,9482.5
60.44,6911.625,9478.6875
60.46,6908.9375,9474.875
60.480000000000004,6906.3125,9471.75
60.5,6903.3125,9467.3125
60.52,6900.9375,9464.0625
60.54,6898.9375,9461.375
60.56,6897.375,9459.0625
60.58,6894.5,9455.25
60.6,6892.125,9452.1875
60.620000000000005,6889.875,9449.9375
60.64,6889.3125,9449.5625
60.660000000000004,6885.375,9442.5
60.68,6883.125,9439.625
60.7,6881.875,9437.1875
60.72,6880.0625,9435.125
60.74,6878.3125,9433.0
60.76,6876.8125,9432.0625
60.78,6875.375,9430.375
60.800000000000004,6874.0625,9428.1875
60.82,6872.75,9426.9375
60.84,6872.1875,9426.1875
60.86,6870.3125,9424.75
60.88,6868.4375,9422.0625
60.9,6866.875,9421.1875
60.92,6865.75,9420.875
60.94,6865.5,9418.25
60.96,6865.5625,9417.9375
60.980000000000004,6863.3125,9413.5625
61.0,6862.75,9412.8125
61.02,6862.8125,9412.3125
61.04,6862.1875,9411.875
61.06,6859.875,9407.875
61.08,6855.9375,9402.5625
61.1,6853.0,9399.4375
61.120000000000005,6850.5625,9395.625
61.14,6848.5625,9393.1875
61.160000000000004,6846.0625,9389.6875
61.18,6844.375,9387.25
61.2,6842.5625,9385.1875
61.22,6841.5625,9384.375
61.24,6841.4375,9382.875
61.26,6839.9375,9380.9375
61.28,6838.375,9379.625
61.300000000000004,6836.8125,9377.4375
61.32,6835.125,9375.5
61.34,6833.125,9373.25
61.36,6831.75,9372.25
61.38,6826.9375,9365.5625
61.4,6825.3125,9363.1875
61.42,6822.875,9359.375
61.44,6820.5625,9356.0625
61.46,6820.4375,9355.5625
61.480000000000004,6820.125,9354.4375
61.5,6819.875,9353.375
61.52,6818.875,9351.875
61.54,6818.0,9350.6875
61.56,6817.625,9348.9375
61.58,6817.8125,9348.5
61.6,6817.75,9348.5
61.620000000000005,6818.125,9349.0
61.64,6818.9375,9350.0
61.660000000000004,6816.75,9346.3125
61.68,6815.75,9344.75
61.7,6812.5,9339.375
61.72,6812.0,9339.0625
61.74,6813.5625,9341.4375
61.76,6814.5625,9343.8125
61.78,6814.25,9343.5
61.800000000000004,6814.125,9343.625
61.82,6815.9375,9345.8125
61.84,6817.9375,9347.8125
61.86,6818.625,9348.8125
61.88,6818.8125,9350.0625
61.9,6819.0625,9352.0
61.92,6820.5,9354.875
61.940000000000005,6821.1875,9356.625
61.96,6820.5625,9355.0625
61.980000000000004,6818.25,9352.0
62.0,6816.875,9350.5
62.02,6816.0,9349.8125
62.04,6816.3125,9350.25
62.06,6815.8125,9350.4375
62.08,6816.6875,9353.0
62.1,6817.1875,9353.0625
62.120000000000005,6817.4375,9353.4375
62.14,6820.375,9356.375
62.160000000000004,6819.125,9355.0
62.18,6822.0625,9358.625
62.2,6822.6875,9360.25
62.22,6824.625,9363.3125
62.24,6827.3125,9367.3125
62.26,6828.875,9368.6875
62.28,6830.375,9370.9375
62.300000000000004,6832.4375,9373.9375
62.32,6835.0625,9377.8125
62.34,6837.9375,9382.5625
62.36,6840.125,9386.8125
62.38,6842.0625,9388.8125
62.4,6843.25,9390.75
62.42,6845.5,9393.0
62.440000000000005,6848.5625,9398.25
62.46,6851.0,9401.125
62.480000000000004,6852.375,9403.375
62.5,6854.8125,9407.4375
62.52,6856.75,9411.125
62.54,6857.9375,9413.1875
62.56,6858.6875,9414.5625
62.58,6860.5,9418.4375
62.6,6862.5625,9421.9375
62.620000000000005,6864.4375,9425.25
62.64,6865.1875,9426.9375
62.660000000000004,6866.1875,9429.1875
62.68,6867.625,9431.375
62.7,6867.9375,9430.8125
62.72,6866.5625,9428.125
62.74,6865.875,9426.5625
62.76,6864.5,9423.9375
62.78,6862.75,9419.9375
62.800000000000004,6861.375,9417.25
62.82,6860.625,9416.375
62.84,6860.1875,9415.0
62.86,6855.4375,9406.625
62.88,6855.25,9404.5
62.9,6851.75,9398.5
62.92,6851.3125,9397.125
62.940000000000005,6849.4375,9394.5625
62.96,6847.875,9391.0625
62.980000000000004,6845.8125,9387.125
63.0,6843.4375,9383.625
63.02,6841.8125,9381.3125
63.04,6840.1875,9377.875
63.06,6837.1875,9374.0
63.08,6836.0,9371.875
63.1,6835.1875,9370.625
63.120000000000005,6835.125,9369.75
63.14,6833.75,9367.625
63.160000000000004,6834.0,9368.5
63.18,6831.25,9364.5625
63.2,6833.8125,9369.1875
63.22,6833.1875,9368.125
63.24,6832.5625,9366.8125
63.26,6830.3125,9363.0625
63.28,6828.3125,9360.4375
63.300000000000004,6826.75,9357.875
63.32,6825.125,9355.375
63.34,6823.125,9353.125
63.36,6821.1875,9350.1875
63.38,6818.875,9347.1875
63.4,6816.6875,9344.75
63.42,6814.875,9341.75
63.440000000000005,6814.25,9341.125
63.46,6813.1875,9337.875
63.480000000000004,6810.625,9333.9375
63.5,6808.9375,9331.4375
63.52,6807.1875,9328.4375
63.54,6805.375,9325.8125
63.56,6804.125,9323.625
63.58,6804.0,9323.125
63.6,6803.125,9321.9375
63.620000000000005,6800.5,9316.4375
63.64,6797.75,9312.9375
63.660000000000004,6796.125,9309.375
63.68,6796.125,9308.8125
63.7,6796.75,9309.0
63.72,6796.0625,9307.875
63.74,6795.4375,9306.5
63.76,6794.8125,9304.875
63.78,6794.375,9303.5
63.800000000000004,6792.9375,9300.9375
63.82,6791.3125,9298.6875
63.84,6789.5625,9295.375
63.86,6789.0625,9294.25
63.88,6787.8125,9291.625
63.9,6786.75,9289.0625
63.92,6785.0625,9287.6875
63.940000000000005,6783.125,9283.875
63.96,6782.1875,9282.6875
63.980000000000004,6782.5625,9282.5
64.0,6782.5625,9281.1875
64.02,6781.75,9279.25
64.04,6780.3125,9276.5
64.06,6779.875,9274.8125
64.08,6778.0,9271.75
64.1,6773.625,9263.625
64.12,6773.0,9260.25
64.14,6772.875,9258.8125
64.16,6772.3125,9257.3125
64.18,6771.625,9256.3125
64.2,6772.0625,9256.25
64.22,6771.625,9255.5
64.24,6771.25,9253.75
64.26,6770.875,9252.5625
64.28,6771.5,9252.1875
64.3,6771.75,9251.25
64.32000000000001,6772.625,9251.625
64.34,6774.1875,9253.0625
64.36,6775.125,9254.375
64.38,6776.5,9256.125
64.4,6777.5625,9258.0625
64.42,6780.0,9261.8125
64.44,6779.375,9259.375
64.46000000000001,6778.6875,9258.75
64.48,6778.3125,9256.1875
64.5,6779.5,9258.5625
64.52,6780.625,9259.25
64.54,6780.8125,9259.25
64.56,6782.0625,9261.6875
64.58,6784.4375,9264.4375
64.6,6784.75,9264.125
64.62,6785.125,9265.5
64.64,6786.3125,9266.8125
64.66,6787.625,9268.5
64.68,6789.125,9270.875
64.7,6789.625,9272.9375
64.72,6791.0,9274.3125
64.74,6792.4375,9277.625
64.76,6795.5625,9282.5
64.78,6798.8125,9288.0625
64.8,6801.5625,9291.125
64.82000000000001,6804.1875,9294.6875
64.84,6806.875,9299.0625
64.86,6809.0,9301.9375
64.88,6811.1875,9305.4375
64.9,6812.0,9306.625
64.92,6813.25,9309.25
64.94,6814.5625,9312.125
64.96000000000001,6816.3125,9315.8125
64.98,6818.0625,9319.25
65.0,6819.75,9321.8125
65.02,6821.6875,9326.6875
65.04,6823.8125,9330.4375
65.06,6825.8125,9334.9375
65.08,6828.4375,9339.8125
65.1,6831.1875,9344.75
65.12,6831.5625,9345.8125
65.14,6830.6875,9342.6875
65.16,6830.5,9341.3125
65.18,6833.375,9345.6875
65.2,6830.0625,9338.0
65.22,6827.5,9331.875
65.24,6825.0625,9326.8125
65.26,6823.8125,9323.5
65.28,6818.625,9313.25
65.3,6819.125,9312.5625
65.32000000000001,6813.125,9301.625
65.34,6813.875,9302.6875
65.36,6811.5,9298.75
65.38,6810.75,9294.8125
65.4,6806.5,9284.8125
65.42,6803.0625,9276.5625
65.44,6799.375,9267.9375
65.46000000000001,6796.4375,9259.875
65.48,6794.1875,9256.5625
65.5,6793.9375,9252.5
65.52,6791.1875,9248.375
65.54,6791.375,9243.4375
65.56,6789.25,9235.4375
65.58,6789.5,9232.625
65.6,6788.75,9223.3125
65.62,6791.0,9226.0625
65.64,6790.6875,9222.4375
65.66,6789.625,9219.0
65.68,6789.0,9224.625
65.7,6788.125,9221.6875
65.72,6784.25,9215.25
65.74,6784.0625,9211.5625
65.76,6782.6875,9203.5
65.78,6783.1875,9199.125
65.8,6783.3125,9197.0625
65.82000000000001,6783.4375,9194.8125
65.84,6782.875,9190.9375
65.86,6780.375,9184.3125
65.88,6776.9375,9179.75
65.9,6775.3125,9179.1875
65.92,6773.125,9178.0
65.94,6769.625,9174.5
65.96000000000001,6767.3125,9172.0625
65.98,6766.3125,9167.6875
66.0,6768.0,9169.375
66.02,6767.625,9172.1875
66.04,6767.1875,9169.375
66.06,6765.875,9167.0
66.08,6765.3125,9170.6875
66.1,6765.8125,9173.9375
66.12,6759.0625,9158.375
66.14,6758.8125,9155.5
66.16,6757.875,9158.8125
66.18,6760.0625,9163.125
66.2,6762.0625,9166.625
66.22,6760.25,9162.9375
66.24,6758.3125,9160.125
66.26,6756.6875,9160.9375
66.28,6756.0,9161.375
66.3,6755.375,9158.75
66.32000000000001,6752.625,9154.6875
66.34,6751.5,9152.25
66.36,6748.125,9147.0
66.38,6747.3125,9146.5
66.4,6747.0625,9147.0625
66.42,6746.9375,9146.0625
66.44,6745.625,9145.0625
66.46000000000001,6745.5625,9146.625
66.48,6747.0625,9148.75
66.5,6747.1875,9148.5625
66.52,6745.625,9147.0625
66.54,6744.125,9144.1875
66.56,6742.875,9143.5
66.58,6740.9375,9139.75
66.6,6740.25,9138.6875
66.62,6737.75,9135.25
66.64,6737.5625,9137.0
66.66,6737.9375,9137.9375
66.68,6736.9375,9136.3125
66.7,6735.25,9134.625
66.72,6734.6875,9134.4375
66.74,6732.5,9132.25
66.76,6730.4375,9128.5625
66.78,6727.5,9123.0
66.8,6725.25,9119.4375
66.82000000000001,6723.0625,9115.5625
66.84,6722.125,9113.25
66.86,6721.25,9111.75
66.88,6719.375,9109.0
66.9,6716.75,9103.6875
66.92,6713.5,9098.875
66.94,6712.0,9094.6875
66.96000000000001,6708.125,9089.0
66.98,6710.5,9094.0625
67.0,6706.5625,9087.4375
67.02,6706.875,9088.25
67.04,6706.5,9088.25
67.06,6704.375,9083.6875
67.08,6701.4375,9079.6875
67.1,6699.5,9077.3125
67.12,6699.1875,9077.3125
67.14,6698.8125,9076.3125
67.16,6699.125,9076.625
67.18,6698.6875,9075.75
67.2,6697.9375,9075.875
67.22,6698.625,9077.0625
67.24,6698.25,9076.875
67.26,6700.5,9081.8125
67.28,6701.8125,9083.1875
67.3,6701.125,9082.375
67.32000000000001,6700.6875,9081.0625
67.34,6700.875,9082.1875
67.36,6703.3125,9085.75
67.38,6703.5625,9086.125
67.4,6705.0,9087.875
67.42,6706.1875,9089.625
67.44,6706.8125,9091.125
67.46000000000001,6706.75,9091.0
67.48,6707.25,9092.4375
67.5,6709.1875,9095.875
67.52,6710.75,9099.375
67.54,6712.5,9103.5
67.56,6714.0625,9106.25
67.58,6716.125,9110.5
67.6,6718.125,9115.0
67.62,6720.25,9119.125
67.64,6722.5,9123.1875
67.66,6724.625,9126.9375
67.68,6728.125,9134.4375
67.7,6725.5,9128.875
67.72,6729.1875,9136.0625
67.74,6729.125,9135.1875
67.76,6734.125,9146.6875
67.78,6733.5,9146.875
67.8,6737.8125,9156.1875
67.82000000000001,6742.875,9166.0625
67.84,6746.1875,9173.3125
67.86,6748.0,9177.25
67.88,6749.25,9180.4375
67.9,6751.3125,9184.875
67.92,6753.625,9189.375
67.94,6755.375,9193.625
67.96000000000001,6756.1875,9195.875
67.98,6755.875,9194.6875
68.0,6758.625,9200.5
68.02,6756.8125,9196.5
68.04,6759.6875,9203.75
68.06,6759.375,9203.1875
68.08,6759.0,9202.4375
68.1,6758.25,9199.625
68.12,6756.6875,9195.8125
68.14,6754.0,9189.6875
68.16,6750.1875,9182.0625
68.18,6746.25,9175.6875
68.2,6743.125,9170.625
68.22,6740.6875,9166.25
68.24,6735.1875,9156.9375
68.26,6731.375,9149.4375
68.28,6727.8125,9143.5
68.3,6725.125,9138.375
68.32000000000001,6721.75,9131.8125
68.34,6720.1875,9129.3125
68.36,6718.0625,9125.25
68.38,6716.5,9122.625
68.4,6715.375,9121.375
68.42,6715.0,9119.875
68.44,6708.25,9106.75
68.46000000000001,6706.3125,9104.75
68.48,6702.4375,9096.5
68.5,6703.0625,9098.125
68.52,6701.6875,9096.625
68.54,6702.0625,9097.125
68.56,6702.0625,9096.6875
68.58,6700.875,9094.625
68.60000000000001,6700.6875,9094.0
68.62,6699.5625,9092.5625
68.64,6696.9375,9087.5625
68.66,6695.0625,9084.6875
68.68,6694.3125,9084.0625
68.7,6693.9375,9083.5
68.72,6691.1875,9078.6875
68.74,6692.125,9080.0
68.76,6688.625,9073.875
68.78,6690.75,9078.0
68.8,6692.1875,9079.125
68.82000000000001,6690.4375,9075.6875
68.84,6688.125,9071.5
68.86,6687.25,9069.875
68.88,6687.0,9068.875
68.9,6686.0625,9066.625
68.92,6685.1875,9065.0625
68.94,6684.6875,9063.875
68.96000000000001,6684.1875,9062.3125
68.98,6683.8125,9061.9375
69.0,6684.8125,9062.6875
69.02,6685.1875,9063.5
69.04,6685.8125,9063.5625
69.06,6686.625,9064.5625
69.08,6688.75,9067.8125
69.10000000000001,6690.25,9070.375
69.12,6691.125,9072.125
69.14,6693.375,9076.125
69.16,6691.6875,9071.4375
69.18,6691.25,9071.0
69.2,6691.75,9069.3125
69.22,6692.9375,9073.1875
69.24,6692.6875,9072.5
69.26,6695.125,9076.5625
69.28,6696.8125,9079.25
69.3,6698.875,9081.5625
69.32000000000001,6700.1875,9083.875
69.34,6701.3125,9085.8125
69.36,6702.625,9088.4375
69.38,6705.25,9091.75
69.4,6708.75,9097.5625
69.42,6711.0625,9103.1875
69.44,6712.125,9104.6875
69.46000000000001,6715.5625,9112.625
69.48,6714.6875,9109.6875
69.5,6718.25,9117.5625
69.52,6721.125,9122.25
69.54,6723.5,9126.375
69.56,6725.3125,9130.25
69.58,6727.0625,9133.5
69.60000000000001,6729.6875,9138.1875
69.62,6732.5625,9144.125
69.64,6734.5,9148.125
69.66,6737.0,9154.3125
69.68,6739.0625,9158.5
69.7,6742.0625,9164.75
69.72,6744.5625,9171.0625
69.74,6748.125,9180.0
69.76,6751.9375,9189.0
69.78,6757.25,9200.8125
69.8,6757.4375,9202.375
69.82000000000001,6759.5,9207.3125
69.84,6758.5,9206.3125
69.86,6760.375,9208.625
69.88,6758.5625,9203.1875
69.9,6754.8125,9191.5625
69.92,6739.8125,9158.0
69.94,6736.4375,9149.6875
69.96000000000001,6729.8125,9136.8125
69.98,6726.625,9130.6875
70.0,6724.3125,9124.125
70.02,6721.0625,9117.75
70.04,6718.0625,9112.75
70.06,6715.8125,9107.5625
70.08,6711.9375,9098.9375
70.10000000000001,6711.0625,9095.375
70.12,6710.0625,9089.8125
70.14,6709.4375,9086.125
70.16,6706.5625,9079.6875
70.18,6707.0625,9079.375
70.2,6702.125,9070.4375
70.22,6705.6875,9075.5
70.24,6704.25,9071.0625
70.26,6702.9375,9068.875
70.28,6700.0625,9064.25
70.3,6699.5625,9062.125
70.32000000000001,6698.8125,9059.6875
70.34,6698.3125,9058.375
70.36,6698.5,9060.25
70.38,6699.75,9061.5
70.4,6700.5625,9061.9375
70.42,6698.0,9056.875
70.44,6697.125,9054.625
70.46000000000001,6697.25,9055.5
70.48,6696.625,9054.0
70.5,6691.8125,9042.5
70.52,6690.75,9041.0625
70.54,6689.875,9040.3125
70.56,6690.0625,9039.5
70.58,6687.625,9035.1875
70.60000000000001,6690.5,9039.9375
70.62,6688.75,9034.1875
70.64,6688.75,9040.875
70.66,6691.125,9042.5625
70.68,6696.0,9049.5625
70.7,6693.6875,9047.8125
70.72,6693.5,9048.0625
70.74,6689.5625,9040.0
70.76,6688.3125,9036.0
70.78,6685.3125,9032.6875
70.8,6682.8125,9024.375
70.82000000000001,6679.4375,9020.8125
70.84,6675.4375,9011.25
70.86,6672.875,9010.75
70.88,6666.1875,8998.3125
70.9,6665.0,8996.6875
70.92,6669.3125,9004.4375
70.94,6669.0,9002.1875
70.96000000000001,6661.5,8985.625
70.98,6658.125,8979.625
71.0,6657.125,8980.5
71.02,6655.375,8973.125
71.04,6656.0625,8973.125
71.06,6657.0,8973.9375
71.08,6656.3125,8975.6875
71.10000000000001,6654.4375,8972.4375
71.12,6654.4375,8971.625
71.14,6653.4375,8968.25
71.16,6653.6875,8968.5625
71.18,6658.625,8978.4375
71.2,6669.9375,9003.0625
71.22,6685.75,9036.1875
71.24,6705.3125,9079.125
71.26,6725.9375,9127.8125
71.28,6746.75,9175.125
71.3,6760.375,9208.25
71.32000000000001,6771.8125,9238.625
71.34,6787.25,9275.375
71.36,6813.3125,9344.1875
71.38,6853.0,9460.4375
71.4,6903.8125,9609.3125
71.42,6959.75,9752.0
71.44,7001.4375,9828.625
71.46000000000001,7025.0,9875.6875
71.48,7044.625,9917.25
71.5,7059.0,9955.9375
71.52,7076.75,9982.4375
71.54,7091.0,10001.5
71.56,7108.0,10022.5
71.58,7129.125,10042.0
71.60000000000001,7149.8125,10059.125
71.62,7157.375,10066.8125
71.64,7158.5625,10067.3125
71.66,7158.125,10065.9375
71.68,7158.25,10066.8125
71.7,7159.625,10071.25
71.72,7161.9375,10077.25
71.74,7165.75,10085.9375
71.76,7170.875,10093.125
71.78,7179.25,10101.625
71.8,7184.125,10110.1875
71.82000000000001,7187.8125,10117.875
71.84,7195.3125,10132.125
71.86,7201.9375,10139.875
71.88,7208.0,10145.9375
71.9,7213.5,10149.0625
71.92,7218.5,10149.25
71.94,7223.5,10149.4375
71.96000000000001,7230.625,10155.125
71.98,7237.4375,10158.8125
72.0,7243.5,10160.5
72.02,7249.125,10160.125
72.04,7253.4375,10161.75
72.06,7258.8125,10164.5
72.08,7264.0,10167.1875
72.10000000000001,7268.25,10170.5
72.12,7273.0,10173.9375
72.14,7278.5,10176.75
72.16,7284.6875,10179.875
72.18,7290.5625,10184.3125
72.2,7295.5625,10189.5625
72.22,7302.125,10194.625
72.24,7310.0,10201.4375
72.26,7317.5625,10208.5625
72.28,7322.1875,10215.0
72.3,7323.9375,10219.625
72.32000000000001,7324.25,10222.0
72.34,7325.125,10224.375
72.36,7326.625,10226.625
72.38,7328.4375,10228.25
72.4,7329.5625,10229.5
72.42,7331.0,10231.1875
72.44,7332.3125,10233.0625
72.46000000000001,7333.4375,10234.8125
72.48,7335.1875,10236.375
72.5,7335.1875,10235.9375
72.52,7334.4375,10231.125
72.54,7331.3125,10223.0
72.56,7327.0,10213.0625
72.58,7321.8125,10204.75
72.60000000000001,7316.3125,10201.4375
72.62,7311.3125,10200.6875
72.64,7306.5625,10201.0625
72.66,7303.125,10202.0625
72.68,7300.6875,10203.5
72.7,7299.0625,10205.625
72.72,7299.0625,10209.5625
72.74,7299.5,10213.875
72.76,7300.125,10217.5625
72.78,7300.875,10221.625
72.8,7300.25,10224.4375
72.82000000000001,7300.375,10227.625
72.84,7300.3125,10230.75
72.86,7299.6875,10232.375
72.88,7298.875,10232.5
72.9,7298.1875,10231.0625
72.92,7297.5625,10230.3125
72.94,7296.875,10230.5625
72.96000000000001,7296.75,10231.9375
72.98,7296.25,10233.6875
73.0,7295.5625,10234.75
73.02,7293.625,10238.625
73.04,7290.6875,10229.625
73.06,7286.4375,10231.75
73.08,7282.25,10233.9375
73.10000000000001,7279.5625,10236.6875
73.12,7277.6875,10238.375
73.14,7277.4375,10239.0625
73.16,7277.9375,10238.1875
73.18,7279.0625,10236.6875
73.2,7279.6875,10234.5625
73.22,7278.875,10231.8125
73.24,7279.5,10229.5
73.26,7280.375,10227.5625
73.28,7281.9375,10229.0625
73.3,7283.0,10230.875
73.32000000000001,7282.8125,10228.875
73.34,7281.75,10225.625
73.36,7280.125,10219.625
73.38,7277.75,10216.375
73.4,7274.5625,10214.9375
73.42,7271.5625,10214.8125
73.44,7268.6875,10214.0625
73.46000000000001,7265.3125,10210.625
73.48,7260.125,10205.125
73.5,7256.0625,10199.875
73.52,7253.75,10197.0625
73.54,7252.625,10196.9375
73.56,7252.5,10196.75
73.58,7253.1875,10196.875
73.60000000000001,7255.25,10197.9375
73.62,7258.8125,10200.1875
73.64,7261.0,10202.5
73.66,7261.875,10204.4375
73.68,7263.9375,10209.375
73.7,7269.8125,10217.9375
73.72,7276.0,10223.8125
73.74,7279.25,10228.5625
73.76,7282.1875,10237.625
73.78,7285.5,10245.875
73.8,7287.5,10250.875
73.82000000000001,7289.3125,10256.5
73.84,7291.75,10262.0625
73.86,7293.25,10266.25
73.88,7293.5625,10268.9375
73.9,7293.5,10269.6875
73.92,7293.1875,10270.6875
73.94,7292.6875,10271.8125
73.96000000000001,7291.25,10272.0625
73.98,7291.5625,10273.25
74.0,7292.8125,10275.1875
74.02,7292.3125,10277.1875
74.04,7289.875,10275.8125
74.06,7287.375,10274.8125
74.08,7285.4375,10272.0
74.10000000000001,7282.625,10264.75
74.12,7279.4375,10258.5625
74.14,7275.3125,10250.5625
74.16,7272.25,10243.4375
74.18,7270.5,10239.0
74.2,7270.375,10236.3125
74.22,7269.6875,10230.25
74.24,7273.0625,10228.125
74.26,7278.4375,10229.25
74.28,7283.3125,10226.6875
74.3,7285.6875,10223.375
74.32000000000001,7286.0,10216.4375
74.34,7287.6875,10212.625
74.36,7290.75,10213.375
74.38,7295.375,10217.5625
74.4,7300.5625,10222.4375
74.42,7305.8125,10228.4375
74.44,7305.75,10224.4375
74.46000000000001,7300.875,10218.375
74.48,7304.5625,10227.625
74.5,7305.6875,10230.25
74.52,7305.1875,10225.625
74.54,7304.75,10220.4375
74.56,7306.75,10221.4375
74.58,7308.75,10221.875
74.60000000000001,7307.75,10219.3125
74.62,7302.3125,10214.8125
74.64,7294.625,10208.5
74.66,7284.3125,10199.6875
74.68,7277.625,10194.25
74.7,7268.625,10186.125
74.72,7259.1875,10176.8125
74.74,7245.6875,10162.625
74.76,7235.9375,10153.9375
74.78,7227.4375,10146.875
74.8,7221.4375,10144.375
74.82000000000001,7231.0,10153.25
74.84,7250.9375,10176.9375
74.86,7270.25,10201.3125
74.88,7291.875,10233.1875
74.9,7315.8125,10254.0625
74.92,7332.125,10264.0625
74.94,7339.1875,10260.9375
74.96000000000001,7340.5625,10245.8125
74.98,7343.0625,10232.5
75.0,7348.75,10224.25
75.02,7354.375,10213.5625
75.04,7358.3125,10216.125
75.06,7362.25,10227.0
75.08,7365.1875,10236.3125
75.10000000000001,7369.0625,10248.875
75.12,7376.5625,10267.0625
75.14,7385.75,10287.3125
75.16,7396.0625,10305.4375
75.18,7404.625,10317.0
75.2,7409.375,10317.9375
75.22,7410.5625,10315.1875
75.24,7410.1875,10311.875
75.26,7408.0,10312.0625
75.28,7405.25,10311.6875
75.3,7403.625,10308.6875
75.32000000000001,7401.625,10312.5625
75.34,7397.875,10318.625
75.36,7395.875,10321.375
75.38,7392.4375,10323.8125
75.4,7385.3125,10319.9375
75.42,7375.5625,10314.25
75.44,7366.8125,10313.875
75.46000000000001,7358.3125,10320.4375
75.48,7351.375,10332.0625
75.5,7347.1875,10343.375
75.52,7351.8125,10361.25
75.54,7365.9375,10378.5625
75.56,7379.3125,10407.1875
75.58,7375.875,10413.0
75.60000000000001,7374.1875,10423.1875
75.62,7385.3125,10441.125
75.64,7390.75,10433.4375
75.66,7380.1875,10406.125
75.68,7368.625,10380.25
75.7,7366.3125,10370.375
75.72,7367.1875,10371.375
75.74,7368.0,10377.5625
75.76,7368.3125,10387.25
75.78,7365.75,10391.6875
75.8,7361.9375,10388.375
75.82000000000001,7358.875,10384.75
75.84,7354.625,10380.125
75.86,7347.4375,10373.5625
75.88,7338.3125,10368.6875
75.9,7328.3125,10369.1875
75.92,7316.875,10369.1875
75.94,7306.25,10368.9375
75.96000000000001,7290.875,10369.1875
75.98,7269.5,10370.8125
76.0,7249.0625,10379.875
76.02,7230.875,10395.3125
76.04,7224.1875,10418.1875
76.06,7225.0,10449.4375
76.08,7220.5,10467.5
76.10000000000001,7215.0625,10472.3125
76.12,7204.5,10463.0
76.14,7190.6875,10443.6875
76.16,7179.25,10422.6875
76.18,7165.6875,10399.4375
76.2,7156.0625,10374.8125
76.22,7160.5625,10378.625
76.24,7043.625,10127.5625
76.26,9620.6875,11290.3125
76.28,10066.0625,11212.625
76.3,9193.125,11101.9375
76.32000000000001,6971.6875,9944.4375
76.34,6910.3125,9789.25
76.36,6912.8125,9729.4375
76.38,6901.125,9691.375
76.4,6906.125,9684.9375
76.42,6913.75,9684.1875
76.44,6916.5,9675.375
76.46000000000001,6910.9375,9662.125
76.48,6901.5,9655.4375
76.5,6894.625,9660.875
76.52,6890.4375,9676.1875
76.54,6884.25,9691.125
76.56,6875.0,9710.3125
76.58,6859.75,9736.875
76.60000000000001,6826.3125,9745.5625
76.62,6743.375,9717.875
76.64,6516.875,9572.1875
76.66,7198.3125,10217.0625
76.68,9114.625,9881.5
76.7,8322.8125,8963.1875
76.72,7805.4375,8428.8125
76.74,7416.1875,8030.0625
76.76,7035.875,7612.375
76.78,6501.25,7054.8125
76.8,5771.625,6307.125
76.82000000000001,5028.75,5566.125
76.84,4277.75,4785.875
76.86,3614.25,4066.3125
76.88,3136.375,3544.3125
76.9,2774.0625,3126.125
76.92,2449.0625,2787.6875
76.94,2164.75,2465.5625
76.96000000000001,1931.8125,2174.6875
76.98,1679.0625,1889.8125
77.0,1498.25,1690.6875
77.02,1356.125,1522.625
77.04,1247.0625,1392.0
77.06,1157.9375,1279.25
77.08,1064.0,1160.375
77.10000000000001,970.875,1046.1875
77.12,869.375,931.125
77.14,782.0,833.375
77.16,708.625,749.1875
77.18,641.25,672.1875
77.2,561.4375,582.6875
77.22,494.5,504.75
77.24,449.6875,451.8125
77.26,417.375,414.1875
77.28,402.75,394.9375
77.3,391.8125,380.3125
77.32000000000001,380.9375,366.625
77.34,370.625,352.625
77.36,354.8125,333.1875
77.38,335.0625,309.125
77.4,314.1875,283.1875
77.42,289.625,254.375
77.44,264.875,225.8125
77.46000000000001,240.6875,197.625
77.48,217.6875,173.0
77.5,198.1875,152.0
77.52,181.375,134.1875
77.54,167.625,120.1875
77.56,157.75,110.5625
77.58,149.8125,103.375
77.60000000000001,143.3125,98.375
77.62,138.4375,95.9375
77.64,135.0625,95.375
77.66,132.9375,96.1875
77.68,131.5625,97.1875
77.7,131.0,99.25
77.72,131.375,102.0
77.74,132.4375,103.9375
77.76,133.125,104.375
77.78,132.8125,103.375
77.8,131.875,101.8125
77.82000000000001,130.625,98.9375
77.84,128.4375,94.125
77.86,125.375,87.6875
77.88,122.375,80.4375
77.9,119.375,74.75
77.92,116.8125,69.9375
77.94,114.625,66.375
77.96000000000001,113.0,63.6875
77.98,111.8125,61.875
78.0,110.9375,60.4375
78.02,110.25,59.3125
78.04,109.5625,58.6875
78.06,109.3125,58.25
78.08,109.0,58.0
78.10000000000001,108.6875,57.625
78.12,108.0625,57.1875
78.14,108.0625,57.0
78.16,107.6875,57.0625
78.18,107.5625,56.625
78.2,107.25,56.3125
78.22,107.0,56.1875
78.24,106.625,55.9375
78.26,106.125,55.9375
78.28,105.6875,55.5
78.3,105.4375,55.3125
78.32000000000001,105.125,55.0625
78.34,104.8125,54.875
78.36,104.9375,55.0625
78.38,104.625,54.8125
78.4,104.4375,55.1875
78.42,104.4375,55.0
78.44,104.0625,54.6875
78.46000000000001,104.1875,54.5
78.48,103.9375,54.5625
78.5,103.875,54.5625
78.52,103.6875,54.4375
78.54,103.5625,54.25
78.56,103.375,54.5625
78.58,103.3125,54.5625
78.60000000000001,103.0625,54.5
78.62,103.0,54.375
78.64,103.0625,54.4375
78.66,102.9375,54.1875
78.68,102.5,54.25
78.7,102.3125,54.125
78.72,102.125,53.625
78.74,101.8125,53.5625
78.76,101.4375,53.5
78.78,101.1875,53.5625
78.8,101.0625,53.125
78.82000000000001,100.625,53.125
78.84,100.3125,52.9375
78.86,100.1875,52.75
78.88,100.125,52.9375
78.9,99.5625,52.5
78.92,99.4375,52.375
78.94,99.125,52.1875
78.96000000000001,98.875,52.5625
78.98,98.6875,52.1875
79.0,98.75,52.125
79.02,98.3125,51.9375
79.04,98.125,51.875
79.06,98.125,51.625
79.08,97.875,51.5
79.10000000000001,97.8125,51.3125
79.12,97.6875,51.375
79.14,97.625,51.375
79.16,97.75,51.25
79.18,97.25,50.875
79.2,97.375,51.125
79.22,97.1875,51.0625
79.24,97.125,50.75
79.26,97.125,51.0
79.28,97.0625,50.9375
79.3,96.875,50.75
79.32000000000001,96.8125,50.6875
79.34,96.9375,50.8125
79.36,96.875,50.75
79.38,96.625,50.75
79.4,96.75,50.75
79.42,96.625,50.8125
79.44,96.5625,50.8125
79.46000000000001,96.4375,50.8125
79.48,95.9375,50.8125
79.5,96.0625,50.875
79.52,96.0,50.875
79.54,96.5,51.0625
79.56,97.0625,51.25
79.58,97.375,51.3125
79.60000000000001,98.0,51.6875
79.62,98.3125,52.0625
79.64,98.9375,51.9375
79.66,99.6875,52.5625
79.68,99.875,52.75
79.7,99.375,52.5
79.72,98.4375,51.8125
79.74,97.25,51.75
79.76,96.625,51.375
79.78,96.1875,51.0625
79.8,95.6875,51.0625
79.82000000000001,95.1875,51.125
79.84,94.625,50.6875
79.86,93.875,50.8125
79.88,93.0,51.125
79.9,93.375,52.75
79.92,93.3125,54.375
79.94,93.4375,56.875
79.96000000000001,93.875,59.8125
79.98,94.375,63.5
80.0,95.125,67.75
80.02,96.6875,71.9375
80.04,98.25,74.4375
80.06,97.3125,73.5625
80.08,96.8125,71.25
80.10000000000001,96.0625,69.6875
80.12,96.3125,70.4375
80.14,96.75,75.875
80.16,99.75,97.25
80.18,102.5,108.625
80.2,100.0,94.875
80.22,97.625,84.0625
80.24,96.0,77.5625
80.26,94.875,71.625
80.28,93.9375,63.9375
80.3,92.3125,59.125
80.32000000000001,92.625,56.25
80.34,91.5625,54.125
80.36,91.1875,53.375
80.38,90.9375,53.9375
80.4,91.1875,56.25
80.42,91.1875,57.4375
80.44,90.875,57.4375
80.46000000000001,90.8125,56.75
80.48,90.6875,55.5
80.5,90.4375,53.25
80.52,89.8125,51.875
80.54,89.75,50.9375
80.56,89.125,50.5
80.58,89.0625,50.6875
80.60000000000001,88.8125,50.1875
80.62,88.875,50.1875
80.64,88.4375,49.75
80.66,88.3125,49.625
80.68,87.9375,49.5
80.7,87.75,49.625
80.72,87.9375,49.4375
80.74,87.75,49.5625
80.76,87.375,49.5
80.78,87.3125,49.125
80.8,87.0,49.1875
80.82000000000001,87.1875,48.8125
80.84,86.75,48.625
80.86,86.4375,48.6875
80.88,86.4375,48.6875
80.9,86.125,48.5625
80.92,86.1875,48.4375
80.94,85.4375,48.375
80.96000000000001,85.5,48.1875
80.98,85.5625,48.1875
81.0,85.5625,48.0
81.02,85.0,48.0
81.04,85.0625,48.0
81.06,84.6875,48.0
81.08,84.9375,47.8125
81.10000000000001,84.6875,47.6875
81.12,84.0625,47.6875
81.14,84.3125,47.75
81.16,84.375,47.8125
81.18,84.4375,47.3125
81.2,83.8125,47.4375
81.22,83.8125,47.1875
81.24,83.4375,47.375
81.26,83.4375,47.625
81.28,83.5,47.375
81.3,83.375,47.4375
81.32000000000001,83.25,47.375
81.34,82.9375,47.375
81.36,83.4375,47.375
81.38,83.0625,47.125
81.4,83.0,47.375
81.42,82.6875,47.5
81.44,82.9375,47.8125
81.46000000000001,82.4375,47.625
81.48,82.25,47.875
81.5,82.4375,48.25
81.52,82.5,48.6875
81.54,82.5625,49.0625
81.56,82.5,49.75
81.58,82.5625,49.625
81.60000000000001,82.4375,49.5
81.62,82.5625,49.125
81.64,82.4375,48.25
81.66,82.125,48.0625
81.68,81.9375,48.0
81.7,81.9375,48.1875
81.72,81.8125,48.25
81.74,81.9375,48.0
81.76,81.8125,48.1875
81.78,81.6875,48.5
81.8,81.625,48.8125
81.82000000000001,81.625,48.75
81.84,81.75,48.5
81.86,81.5625,48.3125
81.88,81.3125,48.25
81.9,81.625,48.25
81.92,81.1875,48.375
81.94,81.0625,48.0
81.96000000000001,81.3125,48.25
81.98,81.375,48.125
82.0,80.9375,47.375
82.02,81.0,47.125
82.04,80.875,47.1875
82.06,80.9375,46.875
82.08,81.0625,46.875
82.10000000000001,81.0,46.875
82.12,80.8125,46.5
82.14,80.9375,46.6875
82.16,80.8125,46.8125
82.18,81.0,46.8125
82.2,80.6875,46.5625
82.22,80.75,46.8125
82.24,80.75,47.125
82.26,80.5,46.75
82.28,80.625,46.5
82.3,80.4375,46.5
82.32000000000001,80.375,46.5
82.34,80.375,46.75
82.36,80.5,46.625
82.38,80.25,46.5
82.4,80.375,46.8125
82.42,80.5625,46.875
82.44,80.5625,46.875
82.46000000000001,80.75,47.1875
82.48,79.875,46.6875
82.5,81.75,49.25
82.52,83.0625,51.5
82.54,84.1875,54.5
82.56,85.25,57.5
82.58,86.8125,61.3125
82.60000000000001,88.75,66.1875
82.62,90.5,72.625
82.64,93.4375,79.875
82.66,97.125,89.5
82.68,100.5625,103.0625
82.7,103.5,125.3125
82.72,107.8125,155.3125
82.74,112.5,190.3125
82.76,117.9375,233.5625
82.78,127.0,289.3125
82.8,141.4375,345.0625
82.82000000000001,153.75,371.125
82.84,160.1875,383.25
82.86,168.625,424.75
82.88,184.1875,487.0625
82.9,199.5,535.375
82.92,210.1875,565.8125
82.94,221.625,579.375
82.96000000000001,231.0,586.25
82.98,242.875,649.5625
83.0,263.0625,754.625
83.02,275.75,837.5
83.04,269.375,863.125
83.06,249.125,841.3125
83.08,219.75,767.9375
83.10000000000001,187.4375,659.9375
83.12,162.0,549.6875
83.14,138.625,424.125
83.16,118.75,308.25
83.18,105.625,223.5625
83.2,98.0625,174.75
83.22,96.0,164.875
83.24,98.625,184.5625
83.26,103.0625,220.75
83.28,114.8125,303.375
83.3,135.8125,438.1875
83.32000000000001,170.0625,640.1875
83.34,201.9375,793.5
83.36,218.9375,859.3125
83.38,223.5625,865.125
83.4,212.25,805.5
83.42,200.5625,748.625
83.44,177.9375,635.25
83.46000000000001,147.4375,478.125
83.48,119.8125,327.125
83.5,101.5,216.9375
83.52,91.6875,155.1875
83.54,90.375,142.4375
83.56,90.625,143.0
83.58,94.0,159.9375
83.60000000000001,98.0625,182.125
83.62,102.5625,213.0
83.64,111.5,273.5
83.66,128.75,393.9375
83.68,158.125,588.6875
83.7,204.4375,823.375
83.72,237.0,949.625
83.74,233.375,909.0
83.76,197.75,720.3125
83.78,151.75,477.6875
83.8,119.25,304.1875
83.82000000000001,99.875,196.3125
83.84,91.6875,146.5625
83.86,91.375,146.6875
83.88,93.1875,155.125
83.9,100.375,203.125
83.92,120.4375,311.375
83.94,179.3125,551.75
83.96000000000001,347.6875,1044.3125
83.98,502.5625,1585.4375
84.0,553.1875,1669.5
84.02,457.125,1243.9375
84.04,326.125,720.8125
84.06,174.4375,248.3125
84.08,103.0625,84.9375
84.10000000000001,90.0,60.4375
84.12,84.375,51.6875
84.14,81.9375,49.4375
84.16,81.75,48.8125
84.18,83.0625,51.25
84.2,88.5625,61.125
84.22,98.5,85.25
84.24,113.25,123.3125
84.26,126.8125,158.375
84.28,136.875,184.25
84.3,142.5,199.625
84.32000000000001,142.3125,201.25
84.34,140.875,196.875
84.36,142.0,198.5
84.38,143.1875,200.875
84.4,143.75,201.3125
84.42,144.0625,204.875
84.44,160.1875,256.125
84.46000000000001,192.125,340.6875
84.48,214.875,395.375
84.5,238.4375,446.5
84.52,266.25,501.9375
84.54,279.0,530.625
84.56,289.875,558.0
84.58,266.5625,468.125
84.60000000000001,205.5,340.9375
84.62,168.125,254.4375
84.64,145.0625,198.875
84.66,127.9375,157.9375
84.68,115.625,129.5625
84.7,107.625,112.25
84.72,103.6875,103.4375
84.74,100.3125,97.625
84.76,96.6875,92.9375
84.78,94.6875,92.625
84.8,95.5,97.5625
84.82000000000001,99.125,108.9375
84.84,109.5625,136.5
84.86,131.3125,192.5625
84.88,167.1875,310.0
84.9,220.375,503.5
84.92,259.5,642.9375
84.94,258.6875,655.875
84.96000000000001,219.5625,549.0625
84.98,183.1875,472.9375
85.0,177.3125,500.4375
85.02,178.3125,528.8125
85.04,176.875,525.5625
85.06,173.5625,503.0
85.08,170.625,478.875
85.10000000000001,171.25,471.1875
85.12,178.1875,485.0625
85.14,185.75,502.125
85.16,178.25,477.1875
85.18,162.4375,431.0
85.2,150.125,398.5
85.22,142.0,385.5625
85.24,135.3125,379.1875
85.26,132.25,384.75
85.28,138.3125,413.4375
85.3,161.0,478.3125
85.32000000000001,178.5625,537.3125
85.34,177.6875,543.6875
85.36,172.8125,535.5625
85.38,168.625,518.375
85.4,189.25,594.875
85.42,227.3125,712.9375
85.44,258.1875,800.6875
85.46000000000001,253.125,760.875
85.48,224.625,649.9375
85.5,192.4375,533.3125
85.52,166.75,451.9375
85.54,151.1875,413.0625
85.56,142.9375,396.3125
85.58,136.4375,384.1875
85.60000000000001,130.625,372.375
85.62,125.5625,362.1875
85.64,125.0625,365.625
85.66,129.0625,380.8125
85.68,134.5,396.8125
85.7,129.5,381.8125
85.72,120.625,359.375
85.74,127.4375,387.3125
85.76,140.125,428.75
85.78,154.875,471.4375
85.8,159.25,471.9375
85.82000000000001,153.625,443.1875
85.84,142.375,405.75
85.86,127.0,368.25
85.88,115.25,353.1875
85.9,110.375,351.9375
85.92,110.125,353.4375
85.94,110.9375,354.375
85.96000000000001,111.0625,355.625
85.98,109.875,354.5625
86.0,108.25,353.1875
86.02,107.4375,352.5
86.04,106.625,350.3125
86.06,106.3125,348.0625
86.08,105.6875,346.3125
86.10000000000001,105.0,344.0
86.12,105.375,345.25
86.14,106.625,349.75
86.16,106.8125,350.8125
86.18,106.6875,350.1875
86.2,106.625,349.125
86.22,106.375,347.6875
86.24,106.0,346.6875
86.26,105.75,345.5
86.28,105.4375,344.625
86.3,105.625,344.6875
86.32000000000001,105.375,343.5625
86.34,105.125,342.9375
86.36,104.6875,342.5625
86.38,104.5625,342.75
86.4,105.0,344.6875
86.42,105.25,345.0
86.44,104.75,343.75
86.46000000000001,104.125,342.375
86.48,103.75,339.1875
86.5,103.0625,336.0
86.52,102.625,333.0
86.54,102.0625,330.75
86.56,101.75,330.0
86.58,101.75,329.75
86.60000000000001,101.8125,330.0625
86.62,101.5,329.625
86.64,101.625,329.375
86.66,101.25,329.8125
86.68,101.5625,330.4375
86.7,101.4375,329.4375
86.72,100.875,328.4375
86.74,100.6875,327.0
86.76,99.9375,325.4375
86.78,100.1875,325.6875
86.8,101.1875,326.375
86.82000000000001,102.375,327.3125
86.84,104.0,329.5
86.86,106.0625,330.4375
86.88,107.3125,326.0625
86.9,106.6875,321.5
86.92,102.5,316.375
86.94,98.375,313.875
86.96000000000001,97.375,312.3125
86.98,97.8125,312.625
87.0,97.75,311.625
87.02,98.1875,314.9375
87.04,97.625,312.9375
87.06,97.6875,314.0
87.08,98.375,319.4375
87.10000000000001,98.875,322.5625
87.12,98.25,319.1875
87.14,98.0,317.375
87.16,97.5,315.875
87.18,97.5625,317.25
87.2,98.1875,319.5
87.22,98.5625,321.4375
87.24,98.6875,322.625
87.26,99.3125,327.0
87.28,100.3125,334.75
87.3,100.8125,340.375
87.32000000000001,99.75,335.1875
87.34,97.0,320.125
87.36,96.75,323.0
87.38,99.625,336.375
87.4,99.3125,332.875
87.42,99.625,332.0
87.44,99.875,332.875
87.46000000000001,99.6875,333.125
87.48,99.6875,333.3125
87.5,99.6875,332.8125
87.52,99.75,331.625
87.54,99.25,327.875
87.56,98.4375,325.0
87.58,98.375,323.9375
87.60000000000001,98.6875,324.0625
87.62,98.5625,323.25
87.64,98.25,322.1875
87.66,98.0625,321.9375
87.68,98.125,321.0625
87.7,97.625,319.0625
87.72,97.625,317.9375
87.74,97.3125,316.25
87.76,96.5625,314.0
87.78,96.25,312.375
87.8,96.3125,311.4375
87.82000000000001,95.6875,306.3125
87.84,95.0,303.25
87.86,94.0625,298.8125
87.88,93.25,294.25
87.9,93.0,292.75
87.92,92.6875,292.625
87.94,92.75,293.375
87.96000000000001,92.5625,293.1875
87.98,92.5625,292.4375
88.0,92.5625,291.75
88.02,92.25,292.375
88.04,92.625,295.0625
88.06,93.5,300.625
88.08,94.1875,305.5
88.10000000000001,94.3125,306.5625
88.12,94.375,307.8125
88.14,94.5625,309.0625
88.16,95.125,311.25
88.18,95.1875,313.9375
88.2,95.3125,316.0
88.22,95.8125,317.8125
88.24,95.75,318.5625
88.26,95.75,318.75
88.28,96.0625,320.375
88.3,96.625,322.375
88.32000000000001,96.6875,322.9375
88.34,96.5625,321.875
88.36,96.4375,320.75
88.38,96.125,317.6875
88.4,96.375,317.5625
88.42,97.375,323.5625
88.44,98.3125,329.75
88.46000000000001,98.3125,330.5
88.48,99.1875,331.6875
88.5,132.9375,352.125
88.52,191.6875,367.875
88.54,111.3125,326.9375
88.56,96.875,315.0625
88.58,98.375,323.25
88.60000000000001,105.375,333.6875
88.62,112.0,339.875
88.64,107.875,345.625
88.66,119.8125,368.875
88.68,123.625,410.0625
88.7,125.75,466.25
88.72,141.6875,524.0
88.74,168.6875,551.8125
88.76,161.6875,539.3125
88.78,149.125,515.0625
88.8,155.875,478.25
88.82000000000001,154.5625,448.4375
88.84,167.75,512.5625
88.86,191.125,581.5
88.88,211.1875,647.4375
88.9,222.875,620.125
88.92,191.4375,464.1875
88.94,124.25,250.75
88.96000000000001,85.8125,126.9375
88.98,72.9375,78.25
89.0,70.1875,62.125
89.02,69.125,54.5625
89.04,70.1875,49.5
89.06,68.8125,45.75
89.08,67.5625,43.875
89.10000000000001,67.5,43.1875
89.12,67.1875,42.5625
89.14,67.1875,42.375
89.16,67.125,42.8125
89.18,67.4375,42.8125
89.2,67.125,42.75
89.22,68.75,43.4375
89.24,71.3125,44.0625
89.26,70.6875,44.125
89.28,70.1875,43.9375
89.3,69.8125,43.75
89.32000000000001,70.375,43.6875
89.34,71.6875,43.875
89.36,76.0625,43.9375
89.38,99.4375,45.9375
89.4,146.75,55.0625
89.42,185.0,66.375
89.44,244.875,89.25
89.46000000000001,275.625,100.0625
89.48,239.3125,84.4375
89.5,242.4375,88.0625
89.52,246.875,89.4375
89.54,233.0,84.8125
89.56,238.75,86.4375
89.58,247.5,87.6875
89.60000000000001,195.9375,65.5
89.62,146.75,51.375
89.64,149.8125,52.0625
89.66,149.1875,51.0
89.68,117.0625,45.875
89.7,80.625,43.0
89.72,68.875,42.0
89.74,66.8125,41.5
89.76,66.25,41.125
89.78,66.4375,41.375
89.8,66.1875,41.25
89.82000000000001,66.375,41.1875
89.84,66.1875,40.9375
89.86,66.375,40.8125
89.88,66.0625,41.125
89.9,66.0625,41.0
89.92,66.1875,40.875
89.94,66.375,41.0
89.96000000000001,66.125,40.6875
89.98,66.4375,40.75
90.0,66.0,41.0625
90.02,66.375,40.75
90.04,66.125,40.75
90.06,66.0625,40.9375
90.08,66.4375,40.875
90.10000000000001,66.4375,40.75
90.12,66.25,40.875
90.14,65.9375,40.6875
90.16,66.125,40.875
90.18,66.0,40.6875
90.2,65.9375,40.75
90.22,65.5625,40.625
90.24,65.875,40.4375
90.26,65.875,40.8125
90.28,65.875,40.5625
90.3,65.875,40.625
90.32000000000001,65.6875,40.4375
90.34,65.5625,40.3125
90.36,65.625,40.625
90.38,65.875,41.125
90.4,66.0,44.0625
90.42,67.4375,52.9375
90.44,71.4375,73.4375
90.46000000000001,78.6875,104.4375
90.48,88.5625,141.9375
90.5,104.8125,194.5
90.52,97.125,128.6875
90.54,68.75,43.9375
90.56,65.8125,41.3125
90.58,65.8125,40.9375
90.60000000000001,65.3125,40.4375
90.62,64.875,40.25
90.64,64.8125,40.375
90.66,65.25,40.125
90.68,64.9375,40.1875
90.7,64.4375,40.0625
90.72,64.6875,40.1875
90.74,64.9375,40.125
90.76,64.875,40.125
90.78,64.8125,40.125
90.8,64.875,39.8125
90.82000000000001,65.0,40.25
90.84,64.625,40.1875
90.86,64.8125,40.0625
90.88,64.9375,40.125
90.9,64.6875,40.1875
90.92,64.9375,40.25
90.94,64.75,40.1875
90.96000000000001,65.25,40.25
90.98,64.6875,40.1875
91.0,64.9375,40.125
91.02,64.6875,40.125
91.04,64.6875,39.9375
91.06,64.625,39.9375
91.08,64.6875,40.25
91.10000000000001,64.75,40.375
91.12,64.5625,40.0625
91.14,64.625,39.75
91.16,64.625,40.0625
91.18,64.375,40.0625
91.2,64.625,40.1875
91.22,64.125,40.4375
91.24,64.4375,40.75
91.26,64.625,41.0
91.28,64.8125,40.6875
91.3,64.5625,40.4375
91.32000000000001,64.5,39.9375
91.34,64.125,40.1875
91.36,64.3125,40.375
91.38,64.6875,40.125
91.4,64.3125,40.3125
91.42,64.1875,40.375
91.44,63.9375,39.125
91.46000000000001,67.9375,40.8125
91.48,75.875,53.875
91.5,79.3125,74.75
91.52,80.125,87.625
91.54,80.9375,92.375
91.56,81.25,92.375
91.58,78.625,87.25
91.60000000000001,75.25,74.9375
91.62,73.5625,64.3125
91.64,74.3125,60.375
91.66,77.875,65.0625
91.68,83.8125,75.8125
91.7,90.625,90.625
91.72,99.75,112.75
91.74,111.8125,143.9375
91.76,126.375,179.0
91.78,143.8125,220.5625
91.8,159.1875,260.8125
91.82000000000001,172.9375,294.6875
91.84,182.25,308.625
91.86,188.5625,313.1875
91.88,193.4375,324.625
91.9,190.875,314.75
91.92,178.625,276.0625
91.94,167.6875,244.5
91.96000000000001,165.0625,234.125
91.98,168.1875,238.25
92.0,173.375,244.8125
92.02,191.0,276.0
92.04,212.6875,313.0625
92.06,232.6875,343.25
92.08,235.9375,342.875
92.10000000000001,222.4375,309.75
92.12,204.3125,270.8125
92.14,194.6875,252.5625
92.16,190.125,243.875
92.18,182.6875,231.4375
92.2,175.4375,218.0625
92.22,171.625,214.1875
92.24,172.5625,218.125
92.26,173.125,221.1875
92.28,172.1875,222.4375
92.3,173.0625,227.25
92.32000000000001,176.6875,237.0625
92.34,179.6875,245.25
92.36,178.4375,245.75
92.38,174.25,242.4375
92.4,167.0625,231.9375
92.42,159.625,218.6875
92.44,156.375,215.3125
92.46000000000001,156.5625,217.75
92.48,158.8125,224.3125
92.5,161.1875,230.8125
92.52,163.8125,238.4375
92.54,164.0625,240.5625
92.56,162.1875,240.25
92.58,161.25,242.9375
92.60000000000001,158.125,240.0
92.62,154.75,236.75
92.64,152.25,236.9375
92.66,150.5625,238.3125
92.68,148.8125,239.9375
92.7,146.125,238.8125
92.72,144.625,238.1875
92.74,145.1875,241.875
92.76,147.0,246.4375
92.78,148.0625,248.5
92.8,145.3125,243.8125
92.82000000000001,142.625,240.0625
92.84,140.125,237.5625
92.86,138.875,237.75
92.88,136.75,236.0625
92.9,138.8125,245.75
92.92,148.875,271.5
92.94,156.875,289.3125
92.96000000000001,158.8125,294.4375
92.98,158.0625,291.0
93.0,152.1875,275.75
93.02,147.875,265.375
93.04,146.9375,263.125
93.06,149.4375,266.25
93.08,157.0,270.8125
93.10000000000001,165.125,267.125
93.12,165.5625,258.5625
93.14,162.1875,253.5625
93.16,158.8125,245.625
93.18,160.4375,244.4375
93.2,165.0,253.0
93.22,168.8125,258.875
93.24,167.75,255.0625
93.26,163.5,246.4375
93.28,156.5,233.5625
93.3,148.75,217.5625
93.32000000000001,143.5,206.6875
93.34,142.125,203.75
93.36,141.8125,202.875
93.38,140.625,204.1875
93.4,139.75,202.1875
93.42,136.5,194.1875
93.44,131.75,185.4375
93.46000000000001,127.4375,178.875
93.48,124.125,172.9375
93.5,121.8125,169.5
93.52,120.8125,167.4375
93.54,120.9375,168.25
93.56,123.25,170.6875
93.58,124.5,172.6875
93.60000000000001,123.8125,170.75
93.62,121.4375,166.5
93.64,119.6875,163.4375
93.66,117.8125,160.8125
93.68,115.125,158.3125
93.7,115.0625,159.6875
93.72,115.625,162.0625
93.74,115.8125,162.125
93.76,115.1875,161.6875
93.78,115.0625,164.8125
93.8,116.0625,171.5
93.82000000000001,117.375,178.5
93.84,119.625,185.8125
93.86,120.9375,188.75
93.88,118.625,183.5625
93.9,115.375,176.5
93.92,114.0,173.3125
93.94,113.625,174.0625
93.96000000000001,114.125,175.625
93.98,115.125,178.625
94.0,115.5,179.6875
94.02,115.9375,180.875
94.04,116.9375,185.0625
94.06,118.1875,189.8125
94.08,118.125,190.6875
94.10000000000001,118.1875,191.5
94.12,118.0625,191.875
94.14,118.1875,192.8125
94.16,118.25,195.1875
94.18,118.8125,197.0625
94.2,119.1875,198.8125
94.22,118.9375,198.9375
94.24,118.5,198.75
94.26,118.5625,200.0
94.28,119.0625,202.4375
94.3,119.3125,204.6875
94.32000000000001,119.25,205.4375
94.34,118.8125,203.25
94.36,118.8125,202.9375
94.38,119.4375,204.25
94.4,120.25,204.125
94.42,121.375,205.125
94.44,122.4375,206.0625
94.46000000000001,124.8125,211.875
94.48,126.3125,216.6875
94.5,125.9375,218.5625
94.52,126.875,221.5625
94.54,127.75,224.625
94.56,129.4375,228.5625
94.58,129.5625,229.0625
94.60000000000001,128.75,227.0625
94.62,128.3125,225.4375
94.64,126.9375,222.9375
94.66,125.9375,219.5625
94.68,123.25,209.625
94.7,119.625,200.625
94.72,116.3125,192.5625
94.74,114.125,185.5
94.76,113.5,181.9375
94.78,108.5625,170.9375
94.8,102.875,166.0
94.82000000000001,106.6875,196.1875
94.84,114.875,230.125
