0.0,9075.125,10822.5
0.02,9097.875,10812.25
0.04,9106.9375,10808.0625
0.06,9095.0,10816.625
0.08,9079.875,10822.625
0.1,9077.25,10823.75
0.12,9082.25,10824.8125
0.14,9091.75,10822.5
0.16,9106.0,10819.625
0.18,9110.5,10825.25
0.2,9100.8125,10838.9375
0.22,9094.625,10849.5625
0.24,9087.3125,10859.5
0.26,9073.625,10879.0
0.28,9066.3125,10891.5625
0.3,9057.25,10901.5625
0.32,9042.0,10905.5625
0.34,9016.9375,10908.125
0.36,8987.4375,10911.4375
0.38,8951.875,10914.9375
0.4,8928.125,10915.6875
0.42,8928.8125,10914.4375
0.44,8928.9375,10916.0
0.46,8936.5625,10918.125
0.48,8954.1875,10917.375
0.5,8980.4375,10915.25
0.52,8998.8125,10914.375
0.54,9011.1875,10913.125
0.56,9013.625,10909.6875
0.58,9016.3125,10906.75
0.6,9015.1875,10906.6875
0.62,9010.9375,10906.9375
0.64,9009.375,10903.3125
0.66,9016.8125,10897.375
0.68,9021.4375,10894.9375
0.7000000000000001,8999.6875,10898.0625
0.72,8970.6875,10896.625
0.74,8958.5,10893.1875
0.76,8959.5625,10890.5
0.78,8954.125,10889.25
0.8,8946.375,10885.9375
0.8200000000000001,8944.5625,10881.25
0.84,8947.375,10877.6875
0.86,8942.875,10876.25
0.88,8923.25,10876.75
0.9,8902.375,10875.8125
0.92,8909.3125,10872.75
0.9400000000000001,8922.0,10871.75
0.96,8933.5,10873.0
0.98,8935.0,10873.0625
1.0,8935.5,10873.625
1.02,8928.6875,10875.1875
1.04,8908.875,10876.8125
1.06,8890.4375,10877.9375
1.08,8886.4375,10877.25
1.1,8884.25,10877.125
1.12,8884.875,10876.4375
1.1400000000000001,8888.1875,10875.8125
1.16,8896.125,10875.625
1.18,8897.375,10877.875
1.2,8887.5625,10880.8125
1.22,8868.75,10884.4375
1.24,8856.0,10886.0625
1.26,8846.375,10890.5
1.28,8826.4375,10892.1875
1.3,8792.6875,10886.9375
1.32,8760.75,10884.125
1.34,8750.3125,10882.75
1.36,8755.625,10882.625
1.3800000000000001,8763.375,10883.4375
1.4000000000000001,8764.25,10884.1875
1.42,8762.875,10884.125
1.44,8759.0625,10885.625
1.46,8748.0,10889.1875
1.48,8729.4375,10891.25
1.5,8708.5625,10890.625
1.52,8694.5625,10888.9375
1.54,8682.125,10889.625
1.56,8653.9375,10888.5
1.58,8603.5625,10884.25
1.6,8548.875,10878.5625
1.62,8490.0,10875.625
1.6400000000000001,8426.6875,10863.875
1.6600000000000001,8357.875,10829.25
1.68,8296.5625,10792.3125
1.7,8245.125,10740.0625
1.72,8217.5625,10698.625
1.74,8204.5625,10672.125
1.76,8198.0625,10655.5
1.78,8192.375,10644.6875
1.8,8185.625,10634.125
1.82,8181.5,10625.4375
1.84,8179.4375,10617.375
1.86,8178.375,10610.5
1.8800000000000001,8176.4375,10602.625
1.9000000000000001,8170.8125,10593.8125
1.92,8169.125,10588.4375
1.94,8168.6875,10585.625
1.96,8166.5625,10582.6875
1.98,8164.125,10579.875
2.0,8161.8125,10577.125
2.02,8159.1875,10574.375
2.04,8157.4375,10571.1875
2.06,8156.0625,10567.375
2.08,8155.75,10566.5
2.1,8155.25,10566.1875
2.12,8155.0,10566.375
2.14,8153.8125,10566.375
2.16,8152.9375,10566.375
2.18,8151.4375,10565.625
2.2,8149.875,10563.75
2.22,8148.125,10562.3125
2.24,8147.1875,10560.6875
2.2600000000000002,8146.0625,10560.0
2.2800000000000002,8145.0,10558.6875
2.3000000000000003,8143.6875,10557.6875
2.32,8142.3125,10556.875
2.34,8141.4375,10556.75
2.36,8134.8125,10552.8125
2.38,8131.0625,10550.875
2.4,8127.1875,10547.25
2.42,8124.125,10545.0625
2.44,8120.9375,10540.875
2.46,8118.0625,10538.6875
2.48,8116.75,10538.5
2.5,8116.625,10539.0625
2.52,8116.5,10539.8125
2.54,8116.125,10539.8125
2.56,8114.75,10539.0
2.58,8114.125,10538.8125
2.6,8113.25,10538.375
2.62,8112.5625,10538.6875
2.64,8111.75,10539.6875
2.66,8111.8125,10540.3125
2.68,8110.6875,10541.375
2.7,8109.9375,10542.0625
2.72,8109.875,10542.1875
2.74,8110.0625,10543.75
2.7600000000000002,8109.75,10545.125
2.7800000000000002,8109.375,10546.5
2.8000000000000003,8109.125,10547.25
2.82,8109.25,10547.625
2.84,8109.0,10548.125
2.86,8109.3125,10548.75
2.88,8109.8125,10549.3125
2.9,8110.625,10550.25
2.92,8111.25,10552.0625
2.94,8112.1875,10553.25
2.96,8113.375,10554.4375
2.98,8114.8125,10556.3125
3.0,8115.125,10557.375
3.02,8115.875,10558.5625
3.04,8116.4375,10559.625
3.06,8116.3125,10560.5
3.08,8115.25,10559.3125
3.1,8114.6875,10557.625
3.12,8116.0625,10558.75
3.14,8114.625,10559.125
3.16,8113.8125,10560.125
3.18,8112.375,10562.375
3.2,8111.3125,10563.0625
3.22,8110.4375,10563.0625
3.24,8109.4375,10562.875
3.2600000000000002,8108.0625,10561.9375
3.2800000000000002,8107.375,10561.4375
3.3000000000000003,8107.0,10560.875
3.3200000000000003,8107.0,10561.3125
3.34,8106.6875,10560.9375
3.36,8106.0625,10560.5625
3.38,8106.0625,10560.25
3.4,8105.5,10560.125
3.42,8104.5,10559.25
3.44,8104.125,10558.8125
3.46,8103.8125,10558.75
3.48,8103.9375,10559.0
3.5,8103.8125,10559.625
3.52,8103.5,10559.625
3.54,8102.75,10559.3125
3.56,8102.3125,10559.5
3.58,8101.75,10558.875
3.6,8101.375,10559.5
3.62,8101.5,10560.0625
3.64,8101.25,10560.1875
3.66,8100.75,10559.8125
3.68,8100.375,10559.375
3.7,8100.8125,10560.25
3.72,8100.8125,10560.375
3.74,8100.75,10560.75
3.7600000000000002,8100.6875,10560.875
3.7800000000000002,8100.75,10561.1875
3.8000000000000003,8100.4375,10561.0
3.8200000000000003,8099.6875,10560.4375
3.84,8098.5625,10560.5
3.86,8097.5625,10559.1875
3.88,8096.3125,10559.0
3.9,8095.125,10558.125
3.92,8094.625,10558.4375
3.94,8094.0,10558.0
3.96,8093.5625,10558.5
3.98,8092.9375,10558.3125
4.0,8092.625,10558.3125
4.0200000000000005,8092.3125,10558.0625
4.04,8092.6875,10557.9375
4.0600000000000005,8092.75,10557.6875
4.08,8093.375,10556.8125
4.1,8094.375,10557.1875
4.12,8095.875,10558.25
4.14,8096.8125,10558.5
4.16,8098.0,10557.625
4.18,8099.4375,10557.8125
4.2,8101.6875,10558.3125
4.22,8104.75,10559.0625
4.24,8107.6875,10559.4375
4.26,8111.4375,10559.375
4.28,8115.375,10558.5625
4.3,8119.25,10556.0
4.32,8122.3125,10554.125
4.34,8126.0625,10551.0625
4.36,8129.3125,10546.8125
4.38,8131.8125,10543.4375
4.4,8136.1875,10540.6875
4.42,8137.6875,10537.0625
4.44,8138.625,10535.0
4.46,8139.5,10533.8125
4.48,8139.6875,10533.25
4.5,8138.9375,10532.375
4.5200000000000005,8137.8125,10532.0625
4.54,8136.8125,10530.8125
4.5600000000000005,8135.125,10530.3125
4.58,8134.125,10529.4375
4.6000000000000005,8134.25,10529.375
4.62,8135.4375,10531.3125
4.64,8136.5625,10532.0625
4.66,8136.8125,10531.6875
4.68,8136.25,10531.125
4.7,8136.0625,10530.5625
4.72,8136.0,10530.5
4.74,8136.75,10530.875
4.76,8137.0625,10532.3125
4.78,8137.125,10532.6875
4.8,8136.1875,10531.3125
4.82,8135.5625,10530.5
4.84,8135.4375,10530.0625
4.86,8136.0625,10530.9375
4.88,8137.625,10531.375
4.9,8138.375,10531.5625
4.92,8138.75,10531.5625
4.94,8140.0,10532.375
4.96,8139.875,10531.875
4.98,8138.8125,10530.6875
5.0,8138.4375,10529.75
5.0200000000000005,8138.625,10529.375
5.04,8138.625,10529.0
5.0600000000000005,8138.9375,10529.3125
5.08,8138.6875,10529.1875
5.1000000000000005,8139.3125,10529.3125
5.12,8139.8125,10529.4375
5.14,8140.4375,10529.3125
5.16,8140.6875,10528.9375
5.18,8141.25,10528.6875
5.2,8141.4375,10529.0625
5.22,8141.5625,10528.5625
5.24,8140.5625,10527.25
5.26,8140.375,10526.4375
5.28,8140.1875,10525.5
5.3,8140.875,10525.0
5.32,8140.625,10524.125
5.34,8140.5625,10522.75
5.36,8140.9375,10521.625
5.38,8141.5625,10520.875
5.4,8141.3125,10519.5625
5.42,8141.625,10517.25
5.44,8142.4375,10515.5
5.46,8142.875,10515.0
5.48,8143.4375,10513.5625
5.5,8142.9375,10511.0
5.5200000000000005,8141.625,10506.125
5.54,8140.1875,10502.375
5.5600000000000005,8138.9375,10498.0625
5.58,8137.375,10494.0
5.6000000000000005,8135.125,10488.3125
5.62,8132.5,10483.125
5.64,8129.875,10477.75
5.66,8127.8125,10472.625
5.68,8126.5,10468.125
5.7,8126.5,10464.1875
5.72,8127.375,10460.3125
5.74,8128.375,10458.0625
5.76,8129.0625,10455.8125
5.78,8129.3125,10454.3125
5.8,8127.6875,10451.4375
5.82,8126.0625,10449.0625
5.84,8126.0,10447.9375
5.86,8126.875,10447.625
5.88,8129.9375,10447.875
5.9,8133.75,10447.8125
5.92,8137.875,10448.0625
5.94,8140.9375,10447.8125
5.96,8141.5,10445.3125
5.98,8140.4375,10441.0625
6.0,8138.5625,10436.75
6.0200000000000005,8137.4375,10433.6875
6.04,8136.3125,10430.4375
6.0600000000000005,8135.125,10427.5
6.08,8134.875,10425.9375
6.1000000000000005,8135.9375,10424.75
6.12,8136.125,10423.1875
6.140000000000001,8136.375,10420.125
6.16,8136.4375,10417.8125
6.18,8136.5,10416.0
6.2,8136.5,10414.6875
6.22,8135.25,10413.0
6.24,8134.1875,10411.6875
6.26,8133.4375,10410.0625
6.28,8133.5625,10409.1875
6.3,8134.3125,10409.0
6.32,8134.75,10408.375
6.34,8137.3125,10408.625
6.36,8139.5625,10409.4375
6.38,8140.3125,10409.3125
6.4,8139.3125,10407.3125
6.42,8136.8125,10405.9375
6.44,8134.875,10402.8125
6.46,8134.3125,10400.0625
6.48,8135.6875,10399.625
6.5,8137.9375,10400.875
6.5200000000000005,8141.1875,10402.4375
6.54,8144.0,10403.75
6.5600000000000005,8145.375,10404.8125
6.58,8145.0625,10403.5625
6.6000000000000005,8143.75,10401.0625
6.62,8143.0,10398.5
6.640000000000001,8142.6875,10396.3125
6.66,8143.125,10397.125
6.68,8145.9375,10400.125
6.7,8150.0,10403.4375
6.72,8152.6875,10405.5
6.74,8155.0,10406.1875
6.76,8156.1875,10405.375
6.78,8157.1875,10405.125
6.8,8159.25,10405.375
6.82,8161.75,10404.6875
6.84,8163.25,10402.125
6.86,8164.25,10400.125
6.88,8165.3125,10398.625
6.9,8165.875,10397.625
6.92,8166.8125,10396.5625
6.94,8167.5625,10396.625
6.96,8169.0,10398.3125
6.98,8169.5625,10400.3125
7.0,8171.125,10402.3125
7.0200000000000005,8172.3125,10403.8125
7.04,8173.625,10405.75
7.0600000000000005,8173.75,10406.8125
7.08,8173.8125,10406.75
7.1000000000000005,8172.9375,10406.875
7.12,8172.125,10406.125
7.140000000000001,8173.9375,10407.5
7.16,8174.8125,10408.5625
7.18,8175.5625,10409.9375
7.2,8176.875,10411.25
7.22,8176.875,10411.75
7.24,8176.25,10411.4375
7.26,8174.5625,10410.875
7.28,8174.0,10410.25
7.3,8173.8125,10410.0625
7.32,8174.3125,10410.9375
7.34,8174.9375,10413.3125
7.36,8175.25,10416.375
7.38,8173.875,10419.5
7.4,8169.0,10420.6875
7.42,8149.0625,10411.9375
7.44,8122.5625,10397.375
7.46,8095.5625,10379.9375
7.48,8063.5,10349.5625
7.5,8021.375,10305.625
7.5200000000000005,7961.25,10233.625
7.54,7860.8125,10080.5625
7.5600000000000005,7809.8125,9976.4375
7.58,7778.6875,9898.375
7.6000000000000005,7751.5625,9814.875
7.62,7718.0,9738.25
7.640000000000001,7693.5625,9678.125
7.66,7672.75,9622.875
7.68,7662.625,9587.25
7.7,7716.75,9643.75
7.72,7807.9375,9726.9375
7.74,7898.9375,9809.6875
7.76,8045.625,9968.3125
7.78,8131.8125,10087.125
7.8,8179.0625,10145.5625
7.82,8221.5,10183.75
7.84,8236.875,10203.25
7.86,8248.625,10206.75
7.88,8258.3125,10185.125
7.9,8276.875,10177.625
7.92,8303.9375,10209.125
7.94,8333.25,10259.9375
7.96,8343.25,10286.0
7.98,8351.875,10304.75
8.0,8358.625,10313.0625
8.02,8363.3125,10322.5
8.040000000000001,8365.0625,10357.5
8.06,8360.75,10399.25
8.08,8352.25,10430.375
8.1,8339.8125,10459.0
8.120000000000001,8333.0625,10471.3125
8.14,8343.0,10457.0625
8.16,8357.9375,10441.125
8.18,8367.4375,10438.0
8.2,8373.375,10424.375
8.22,8375.5625,10415.875
8.24,8370.4375,10428.375
8.26,8346.25,10465.6875
8.28,8302.3125,10493.6875
8.3,8249.5,10515.875
8.32,8215.875,10504.0
8.34,8200.8125,10475.625
8.36,8195.3125,10442.75
8.38,8193.875,10412.75
8.4,8189.8125,10376.8125
8.42,8180.375,10336.75
8.44,8177.0625,10307.6875
8.46,8184.6875,10318.125
8.48,8196.25,10362.5
8.5,8204.625,10410.4375
8.52,8207.25,10443.25
8.540000000000001,8210.9375,10465.9375
8.56,8213.4375,10485.6875
8.58,8214.6875,10500.0625
8.6,8214.375,10498.5
8.620000000000001,8215.375,10492.3125
8.64,8217.1875,10486.25
8.66,8220.3125,10489.5
8.68,8224.1875,10503.375
8.700000000000001,8226.875,10517.875
8.72,8223.25,10513.5625
8.74,8218.75,10506.0625
8.76,8214.5,10498.25
8.78,8209.5,10486.8125
8.8,8203.125,10467.8125
8.82,8195.75,10445.1875
8.84,8190.1875,10430.5625
8.86,8189.625,10429.375
8.88,8191.4375,10436.5625
8.9,8191.0,10437.125
8.92,8188.8125,10429.5
8.94,8188.1875,10424.3125
8.96,8189.75,10428.1875
8.98,8192.4375,10433.1875
9.0,8196.875,10442.75
9.02,8202.75,10456.5
9.040000000000001,8204.3125,10458.25
9.06,8204.375,10453.375
9.08,8206.1875,10452.25
9.1,8210.0625,10463.3125
9.120000000000001,8213.125,10477.625
9.14,8209.875,10475.25
9.16,8201.5,10459.75
9.18,8191.4375,10437.5625
9.200000000000001,8181.875,10418.75
9.22,8171.625,10398.9375
9.24,8165.4375,10388.125
9.26,8161.0,10379.0625
9.28,8153.4375,10364.0
9.3,8144.75,10342.5625
9.32,8146.25,10326.75
9.34,8148.8125,10311.25
9.36,8146.3125,10292.25
9.38,8141.0,10271.3125
9.4,8133.25,10242.4375
9.42,8135.375,10236.1875
9.44,8139.6875,10236.6875
9.46,8147.5,10246.1875
9.48,8153.1875,10256.375
9.5,8158.25,10268.0625
9.52,8161.8125,10279.875
9.540000000000001,8159.0,10272.875
9.56,8161.25,10272.4375
9.58,8169.0625,10291.875
9.6,8177.9375,10322.5
9.620000000000001,8182.9375,10341.4375
9.64,8191.0,10375.4375
9.66,8194.3125,10400.25
9.68,8195.25,10420.75
9.700000000000001,8193.125,10427.375
9.72,8188.6875,10416.5625
9.74,8183.625,10395.125
9.76,8180.3125,10379.3125
9.78,8177.9375,10370.3125
9.8,8174.125,10364.9375
9.82,8169.375,10362.1875
9.84,8165.25,10362.0625
9.86,8162.3125,10362.1875
9.88,8158.4375,10355.375
9.9,8151.8125,10338.6875
9.92,8144.75,10316.6875
9.94,8139.125,10295.75
9.96,8136.375,10280.3125
9.98,8139.25,10283.1875
10.0,8138.625,10277.375
10.02,8143.1875,10283.8125
10.040000000000001,8143.75,10274.8125
10.06,8146.4375,10269.25
10.08,8151.5,10262.1875
10.1,8155.375,10253.9375
10.120000000000001,8156.75,10236.875
10.14,8163.6875,10217.9375
10.16,8182.0,10209.8125
10.18,8233.25,10227.5
10.200000000000001,8291.25,10244.9375
10.22,8315.75,10246.3125
10.24,8341.6875,10268.875
10.26,8362.25,10303.6875
10.28,8375.75,10340.5625
10.3,8382.875,10371.0
10.32,8387.0,10393.0625
10.34,8389.8125,10402.0
10.36,8391.8125,10393.3125
10.38,8396.9375,10372.0
10.4,8405.375,10346.1875
10.42,8420.0625,10333.6875
10.44,8468.875,10370.375
10.46,8495.5,10389.75
10.48,8508.0,10402.3125
10.5,8519.4375,10404.375
10.52,8533.3125,10400.6875
10.540000000000001,8547.4375,10401.0625
10.56,8559.25,10411.4375
10.58,8567.1875,10429.1875
10.6,8571.375,10444.125
10.620000000000001,8574.375,10451.4375
10.64,8576.5,10454.125
10.66,8579.5625,10454.9375
10.68,8582.75,10449.6875
10.700000000000001,8587.5625,10443.0
10.72,8590.875,10446.1875
10.74,8593.4375,10449.375
10.76,8594.0,10459.0625
10.78,8595.0625,10466.9375
10.8,8596.0,10463.625
10.82,8599.6875,10452.8125
10.84,8604.375,10443.875
10.86,8607.8125,10444.875
10.88,8609.8125,10445.375
10.9,8611.5,10452.3125
10.92,8612.125,10454.3125
10.94,8614.5625,10451.125
10.96,8618.0625,10447.0625
10.98,8623.75,10443.125
11.0,8630.6875,10446.875
11.02,8636.625,10450.9375
11.040000000000001,8640.8125,10456.125
11.06,8645.875,10456.5625
11.08,8652.6875,10454.1875
11.1,8659.6875,10446.1875
11.120000000000001,8667.8125,10442.5625
11.14,8677.3125,10444.5
11.16,8689.75,10453.4375
11.18,8701.8125,10459.9375
11.200000000000001,8712.25,10462.6875
11.22,8721.5625,10462.4375
11.24,8729.625,10462.9375
11.26,8738.25,10461.9375
11.28,8750.1875,10462.4375
11.3,8777.1875,10479.0
11.32,8826.625,10524.8125
11.34,8868.375,10570.75
11.36,8894.25,10610.875
11.38,8908.0,10641.4375
11.4,8909.6875,10655.6875
11.42,8905.875,10670.375
11.44,8904.5625,10675.0625
11.46,8905.5,10677.0625
11.48,8910.5,10670.8125
11.5,8915.9375,10672.8125
11.52,8923.5625,10670.0
11.540000000000001,8924.5625,10672.375
11.56,8920.625,10678.3125
11.58,8915.0625,10684.1875
11.6,8913.625,10684.875
11.620000000000001,8915.0,10680.625
11.64,8918.4375,10674.25
11.66,8920.8125,10670.9375
11.68,8925.3125,10668.0
11.700000000000001,8930.875,10661.0
11.72,8938.125,10650.6875
11.74,8942.8125,10645.5625
11.76,8944.9375,10643.5625
11.78,8945.5,10648.75
11.8,8944.3125,10651.8125
11.82,8943.8125,10654.4375
11.84,8945.75,10651.0
11.86,8945.8125,10650.1875
11.88,8945.625,10651.5625
11.9,8944.3125,10655.1875
11.92,8943.6875,10658.1875
11.94,8943.5625,10659.9375
11.96,8944.0625,10658.9375
11.98,8945.3125,10658.0625
12.0,8949.3125,10651.8125
12.02,8953.6875,10646.625
12.040000000000001,8958.625,10640.375
12.06,8964.5,10629.6875
12.08,8969.0625,10619.9375
12.1,8971.75,10613.5625
12.120000000000001,8973.1875,10611.75
12.14,8975.3125,10611.125
12.16,8974.25,10618.625
12.18,8968.625,10637.125
12.200000000000001,8964.875,10652.125
12.22,8965.375,10653.875
12.24,8969.3125,10653.1875
12.26,8972.875,10649.3125
12.280000000000001,8972.3125,10648.3125
12.3,8972.375,10635.9375
12.32,8976.125,10612.625
12.34,8982.125,10592.625
12.36,8986.5625,10581.125
12.38,8989.0,10574.9375
12.4,8991.0,10573.875
12.42,8993.5,10579.6875
12.44,8995.625,10590.375
12.46,8997.25,10598.0
12.48,9000.375,10601.3125
12.5,9001.5,10612.125
12.52,9001.25,10617.8125
12.540000000000001,9000.625,10627.4375
12.56,8998.9375,10636.5625
12.58,8993.5625,10641.6875
12.6,8989.25,10639.8125
12.620000000000001,8987.0625,10631.8125
12.64,8989.4375,10619.4375
12.66,8994.125,10609.375
12.68,8997.625,10601.625
12.700000000000001,9002.0,10595.125
12.72,9006.3125,10593.4375
12.74,9008.9375,10594.5
12.76,9010.5625,10597.5625
12.780000000000001,9011.375,10601.8125
12.8,9013.6875,10603.5
12.82,9017.25,10601.6875
12.84,9021.875,10598.75
12.86,9025.125,10597.625
12.88,9027.0625,10600.875
12.9,9028.5,10609.0625
12.92,9029.9375,10607.4375
12.94,9032.0625,10595.8125
12.96,9033.8125,10586.5625
12.98,9034.375,10572.1875
13.0,9037.75,10565.8125
13.02,9040.8125,10545.9375
13.040000000000001,9044.875,10525.5
13.06,9050.125,10515.9375
13.08,9054.5625,10507.9375
13.1,9063.1875,10509.3125
13.120000000000001,9070.1875,10511.0
13.14,9089.4375,10520.125
13.16,9109.5625,10517.125
13.18,9137.0,10506.5625
13.200000000000001,9180.375,10507.75
13.22,9208.0,10494.5
13.24,9224.9375,10467.875
13.26,9265.0625,10458.3125
13.280000000000001,9322.625,10470.625
13.3,9388.875,10505.75
13.32,9485.9375,10552.5625
13.34,9540.9375,10571.25
13.36,9575.5,10576.0625
13.38,9626.625,10596.875
13.4,9671.6875,10610.6875
13.42,9703.5,10614.875
13.44,9749.625,10622.0
13.46,9770.0,10614.625
13.48,9781.6875,10591.75
13.5,9814.0625,10565.125
13.52,9880.5,10532.75
13.540000000000001,9894.3125,10505.5625
13.56,9896.875,10481.6875
13.58,9895.9375,10466.0
13.6,9898.1875,10444.5625
13.620000000000001,9902.625,10421.1875
13.64,9902.1875,10391.6875
13.66,9905.375,10363.625
13.68,9920.5625,10345.3125
13.700000000000001,9929.625,10341.5
13.72,9934.125,10344.1875
13.74,9937.6875,10352.875
13.76,9944.0,10354.3125
13.780000000000001,9955.4375,10361.0625
13.8,9959.5,10345.75
13.82,9962.875,10340.8125
13.84,9968.1875,10348.5
13.86,9976.9375,10365.25
13.88,9982.625,10375.625
13.9,9986.0,10380.375
13.92,9983.625,10374.1875
13.94,9980.1875,10362.125
13.96,9980.75,10355.3125
13.98,9981.6875,10353.8125
14.0,9978.0,10346.5
14.02,9971.25,10334.8125
14.040000000000001,9966.4375,10320.4375
14.06,9962.4375,10316.6875
14.08,9957.6875,10309.3125
14.1,9952.6875,10304.875
14.120000000000001,9947.9375,10303.25
14.14,9943.125,10297.0
14.16,9938.1875,10286.5625
14.18,9935.0,10278.875
14.200000000000001,9935.375,10286.8125
14.22,9938.0625,10305.3125
14.24,9941.1875,10322.8125
14.26,9941.375,10332.5
14.280000000000001,9942.25,10341.8125
14.3,9943.125,10347.1875
14.32,9944.125,10355.3125
14.34,9943.9375,10364.5625
14.36,9943.4375,10365.375
14.38,9938.75,10351.5625
14.4,9931.8125,10335.5
14.42,9928.375,10334.75
14.44,9926.375,10339.0
14.46,9923.0625,10335.0
14.48,9919.875,10323.625
14.5,9917.875,10309.6875
14.52,9918.375,10303.875
14.540000000000001,9916.625,10293.625
14.56,9913.25,10284.0
14.58,9910.5,10272.5625
14.6,9910.125,10268.875
14.620000000000001,9916.5,10278.1875
14.64,9931.0,10305.6875
14.66,9947.6875,10339.4375
14.68,9966.5625,10366.9375
14.700000000000001,9992.3125,10392.75
14.72,10017.125,10423.9375
14.74,10043.3125,10479.875
14.76,10064.0,10555.125
14.780000000000001,10072.0,10638.5
14.8,10070.875,10682.3125
14.82,10076.4375,10685.1875
14.84,10089.625,10651.5
14.86,10094.625,10605.5
14.88,10091.125,10569.1875
14.9,10086.6875,10563.9375
14.92,10088.125,10585.9375
14.94,10089.4375,10636.4375
14.96,10077.0625,10710.5
14.98,10055.75,10784.3125
15.0,10018.25,10870.8125
15.02,9958.8125,10937.75
15.040000000000001,9900.5,10984.8125
15.06,9861.8125,11022.6875
15.08,9856.5625,11054.625
15.1,9871.75,11077.75
15.120000000000001,9888.9375,11100.625
15.14,9882.625,11119.5
15.16,9884.4375,11133.8125
15.18,9859.375,11145.4375
15.200000000000001,9859.4375,11155.0625
15.22,9861.4375,11163.9375
15.24,9819.375,11169.25
15.26,9752.875,11173.4375
15.280000000000001,9752.375,11183.3125
15.3,9745.3125,11191.375
15.32,9723.375,11191.375
15.34,9639.0,11174.375
15.36,9628.3125,11169.4375
15.38,9664.25,11182.5625
15.4,9674.625,11190.6875
15.42,9684.875,11200.3125
15.44,9716.4375,11215.25
15.46,9716.625,11219.9375
15.48,9611.875,11194.375
15.5,9583.5625,11182.75
15.52,9636.625,11188.8125
15.540000000000001,9712.4375,11192.4375
15.56,9731.875,11188.625
15.58,9795.25,11189.125
15.6,9826.9375,11176.5625
15.620000000000001,9807.5,11158.625
15.64,9857.4375,11159.125
15.66,10000.8125,11166.6875
15.68,10102.0,11161.875
15.700000000000001,10164.4375,11139.8125
15.72,10172.3125,11122.5
15.74,10163.25,11115.875
15.76,10118.125,11117.0625
15.780000000000001,10082.0625,11116.875
15.8,10096.0,11110.0625
15.82,10092.375,11095.375
15.84,10049.75,11076.375
15.860000000000001,9997.3125,11057.5625
15.88,9955.0625,11040.8125
15.9,9993.0625,11023.75
15.92,10021.9375,11003.25
15.94,10061.25,10961.125
15.96,10088.0625,10909.4375
15.98,10077.875,10872.875
16.0,10045.25,10828.25
16.02,10066.25,10788.0
16.04,10114.8125,10766.0
16.06,10159.625,10757.625
16.080000000000002,10184.1875,10756.5625
16.1,10176.5625,10753.9375
16.12,10129.5,10767.125
16.14,10066.5,10778.875
16.16,10031.6875,10780.75
16.18,10027.4375,10772.375
16.2,10005.4375,10768.75
16.22,9975.0625,10773.8125
16.240000000000002,9987.3125,10781.875
16.26,10038.1875,10785.375
16.28,10070.9375,10781.0625
16.3,10069.5,10777.3125
16.32,10054.8125,10778.6875
16.34,10057.1875,10780.375
16.36,10078.3125,10781.125
16.38,10106.0,10775.5
16.4,10125.0625,10767.5
16.42,10142.0,10756.75
16.44,10149.0625,10753.6875
16.46,10158.6875,10747.875
16.48,10165.6875,10743.9375
16.5,10153.6875,10747.75
16.52,10139.875,10751.8125
16.54,10146.3125,10747.625
16.56,10163.4375,10738.9375
16.580000000000002,10176.625,10736.9375
16.6,10185.0,10746.375
16.62,10182.4375,10763.625
16.64,10180.6875,10776.25
16.66,10182.375,10777.1875
16.68,10178.0625,10776.0625
16.7,10171.375,10777.5
16.72,10165.1875,10782.0625
16.740000000000002,10167.125,10784.8125
16.76,10166.4375,10788.0
16.78,10153.625,10791.5
16.8,10143.9375,10791.25
16.82,10144.9375,10793.0625
16.84,10158.75,10790.875
16.86,10172.0625,10788.0625
16.88,10185.6875,10775.375
16.9,10204.375,10762.0625
16.92,10219.6875,10739.6875
16.94,10234.3125,10737.5625
16.96,10237.125,10760.5625
16.98,10233.5,10789.1875
17.0,10234.0625,10816.375
17.02,10222.4375,10839.875
17.04,10209.875,10861.25
17.06,10197.0,10886.5
17.080000000000002,10195.25,10914.625
17.1,10165.375,10949.375
17.12,10124.0,10975.875
17.14,10105.9375,10984.625
17.16,10109.6875,10982.875
17.18,10137.875,10971.0
17.2,10169.4375,10960.875
17.22,10193.9375,10951.6875
17.240000000000002,10214.875,10938.0625
17.26,10222.125,10930.125
17.28,10210.6875,10925.6875
17.3,10186.3125,10928.9375
17.32,10152.1875,10932.6875
17.34,10140.9375,10935.375
17.36,10158.1875,10936.0625
17.38,10187.125,10931.25
17.400000000000002,10203.0625,10920.625
17.42,10200.5,10916.5
17.44,10173.1875,10920.4375
17.46,10140.0625,10921.875
17.48,10117.5625,10915.25
17.5,10106.3125,10910.3125
17.52,10126.3125,10904.4375
17.54,10164.0,10896.625
17.56,10203.625,10889.1875
17.580000000000002,10215.125,10898.6875
17.6,10188.125,10921.625
17.62,10153.9375,10936.0625
17.64,10129.125,10940.3125
17.66,10137.8125,10935.1875
17.68,10151.1875,10932.375
17.7,10158.875,10932.875
17.72,10168.8125,10938.375
17.740000000000002,10166.9375,10944.0625
17.76,10150.75,10950.5
17.78,10140.375,10951.3125
17.8,10146.0625,10950.25
17.82,10170.6875,10945.75
17.84,10191.625,10941.1875
17.86,10199.6875,10938.375
17.88,10193.0,10938.3125
17.900000000000002,10190.875,10935.0
17.92,10194.5,10932.0625
17.94,10202.0,10931.625
17.96,10203.0625,10933.8125
17.98,10206.4375,10930.75
18.0,10217.625,10928.125
18.02,10227.6875,10925.0
18.04,10234.75,10923.875
18.06,10234.0625,10924.1875
18.080000000000002,10230.9375,10924.9375
18.1,10224.375,10926.8125
18.12,10212.0625,10927.875
18.14,10209.125,10926.25
18.16,10215.25,10923.0
18.18,10220.4375,10918.4375
18.2,10222.5625,10915.5
18.22,10220.6875,10917.125
18.240000000000002,10215.375,10918.5625
18.26,10211.0625,10919.4375
18.28,10209.6875,10918.75
18.3,10213.5,10915.625
18.32,10222.1875,10912.1875
18.34,10228.375,10907.8125
18.36,10224.125,10907.125
18.38,10213.4375,10909.75
18.400000000000002,10210.125,10910.625
18.42,10214.8125,10907.9375
18.44,10211.8125,10907.75
18.46,10217.0,10903.5625
18.48,10217.125,10905.375
18.5,10228.4375,10901.5625
18.52,10235.25,10898.375
18.54,10226.0625,10897.5625
18.56,10222.6875,10896.4375
18.580000000000002,10227.6875,10891.5
18.6,10236.375,10886.875
18.62,10242.25,10880.8125
18.64,10246.1875,10872.5625
18.66,10250.0625,10865.0625
18.68,10245.8125,10864.6875
18.7,10240.875,10866.3125
18.72,10237.3125,10866.75
18.740000000000002,10239.4375,10862.625
18.76,10236.5,10862.75
18.78,10248.1875,10853.0
18.8,10248.0625,10855.0625
18.82,10248.125,10857.4375
18.84,10243.0625,10858.3125
18.86,10237.5625,10859.3125
18.88,10234.125,10858.5
18.900000000000002,10235.9375,10856.3125
18.92,10238.5,10857.5
18.94,10237.5625,10859.75
18.96,10235.3125,10864.0625
18.98,10231.0625,10868.6875
19.0,10226.75,10871.625
19.02,10224.125,10873.0625
19.04,10224.0625,10872.6875
19.06,10227.375,10871.5625
19.080000000000002,10226.8125,10871.125
19.1,10220.125,10872.0625
19.12,10216.0625,10872.375
19.14,10218.1875,10872.1875
19.16,10218.5,10873.875
19.18,10218.0625,10875.0
19.2,10208.375,10879.75
19.22,10204.875,10885.5625
19.240000000000002,10196.5,10894.0
19.26,10203.8125,10889.8125
19.28,10201.625,10893.9375
19.3,10203.0625,10896.5625
19.32,10202.3125,10895.875
19.34,10200.5,10894.8125
19.36,10194.25,10898.6875
19.38,10188.5625,10902.5
19.400000000000002,10191.125,10901.5625
19.42,10201.0625,10894.625
19.44,10208.75,10890.9375
19.46,10210.3125,10890.9375
19.48,10208.0625,10893.75
19.5,10202.5625,10895.3125
19.52,10204.75,10894.75
19.54,10202.75,10896.5625
19.56,10204.5625,10899.75
19.580000000000002,10206.3125,10899.0625
19.6,10203.375,10902.875
19.62,10196.75,10907.4375
19.64,10186.0,10911.9375
19.66,10183.25,10910.75
19.68,10185.9375,10908.6875
19.7,10192.3125,10909.0625
19.72,10200.625,10912.8125
19.740000000000002,10208.3125,10913.8125
19.76,10210.8125,10914.25
19.78,10208.9375,10913.375
19.8,10210.3125,10910.6875
19.82,10211.0,10909.625
19.84,10211.8125,10907.9375
19.86,10214.875,10908.625
19.88,10219.5,10910.4375
19.900000000000002,10220.0,10914.8125
19.92,10214.3125,10917.375
19.94,10207.0625,10920.375
19.96,10206.0625,10924.3125
19.98,10206.9375,10929.9375
20.0,10206.25,10935.1875
20.02,10201.625,10940.625
20.04,10199.8125,10943.0
20.06,10205.3125,10941.4375
20.080000000000002,10208.0625,10936.6875
20.1,10214.5,10931.8125
20.12,10205.0625,10936.0
20.14,10204.0625,10937.0
20.16,10215.3125,10933.375
20.18,10227.4375,10927.625
20.2,10230.875,10921.375
20.22,10228.3125,10916.75
20.240000000000002,10220.375,10917.6875
20.26,10217.6875,10918.3125
20.28,10221.375,10914.125
20.3,10229.125,10904.75
20.32,10230.4375,10899.0
20.34,10220.1875,10896.9375
20.36,10207.0,10895.9375
20.38,10196.6875,10889.6875
20.400000000000002,10195.125,10880.875
20.42,10183.125,10874.0625
20.44,10179.9375,10864.5625
20.46,10176.0,10854.9375
20.48,10172.1875,10846.5
20.5,10172.4375,10837.0625
20.52,10168.5,10827.375
20.54,10162.25,10817.8125
20.56,10156.6875,10809.0
20.580000000000002,10153.0625,10799.3125
20.6,10152.0,10785.625
20.62,10153.125,10768.5625
20.64,10153.75,10750.6875
20.66,10151.625,10740.8125
20.68,10144.4375,10737.9375
20.7,10139.0625,10735.875
20.72,10138.5625,10728.4375
20.740000000000002,10140.4375,10719.3125
20.76,10139.0,10713.625
20.78,10136.0625,10709.0
20.8,10130.6875,10706.5625
20.82,10129.0625,10700.75
20.84,10124.3125,10698.4375
20.86,10119.5625,10698.5625
20.88,10115.0,10696.6875
20.900000000000002,10113.5625,10692.75
20.92,10105.0,10696.0
20.94,10108.1875,10691.75
20.96,10104.8125,10691.3125
20.98,10105.1875,10679.9375
21.0,10106.5,10670.6875
21.02,10107.9375,10671.0
21.04,10107.6875,10673.125
21.06,10109.75,10673.1875
21.080000000000002,10114.75,10672.625
21.1,10115.6875,10673.375
21.12,10113.25,10672.0625
21.14,10111.5625,10673.8125
21.16,10105.6875,10681.125
21.18,10100.1875,10683.3125
21.2,10098.3125,10675.8125
21.22,10102.125,10662.0
21.240000000000002,10098.5,10657.5625
21.26,10103.5,10651.75
21.28,10099.75,10659.375
21.3,10097.9375,10660.3125
21.32,10095.3125,10657.0625
21.34,10090.75,10656.5
21.36,10086.0,10659.8125
21.38,10083.3125,10657.5625
21.400000000000002,10083.25,10650.125
21.42,10083.625,10644.375
21.44,10082.375,10642.0625
21.46,10080.1875,10642.1875
21.48,10077.3125,10643.0
21.5,10076.75,10643.0
21.52,10076.5,10640.3125
21.54,10073.5625,10638.875
21.56,10068.4375,10637.1875
21.580000000000002,10065.0,10631.875
21.6,10063.1875,10621.4375
21.62,10062.1875,10613.9375
21.64,10059.375,10620.0625
21.66,10056.9375,10627.5625
21.68,10054.6875,10640.5625
21.7,10054.6875,10652.0625
21.72,10048.0,10673.75
21.740000000000002,10042.5625,10693.6875
21.76,10014.25,10729.375
21.78,9984.875,10760.125
21.8,9945.5625,10792.125
21.82,9907.5,10814.0625
21.84,9872.125,10836.0625
21.86,9841.125,10858.0
21.88,9814.625,10879.9375
21.900000000000002,9785.1875,10905.0625
21.92,9743.9375,10932.625
21.94,9711.9375,10963.625
21.96,9689.5625,10994.125
21.98,9675.5,11016.8125
22.0,9669.125,11029.875
22.02,9656.625,11044.3125
22.04,9644.875,11060.25
22.06,9623.5625,11080.125
22.080000000000002,9598.9375,11096.0625
22.1,9576.875,11103.5625
22.12,9555.6875,11109.625
22.14,9535.625,11111.5625
22.16,9520.3125,11109.5625
22.18,9514.3125,11108.25
22.2,9508.5625,11109.6875
22.22,9501.75,11112.75
22.240000000000002,9490.0,11120.0
22.26,9467.5,11129.625
22.28,9448.75,11135.6875
22.3,9444.0,11135.75
22.32,9442.5,11137.375
22.34,9436.25,11141.75
22.36,9432.5,11145.375
22.38,9425.5,11150.8125
22.400000000000002,9419.0,11155.8125
22.42,9420.3125,11162.625
22.44,9417.1875,11171.5
22.46,9407.375,11180.375
22.48,9404.3125,11185.1875
22.5,9405.4375,11186.75
22.52,9401.6875,11187.5625
22.54,9399.875,11190.75
22.56,9400.3125,11197.125
22.580000000000002,9412.0,11201.5625
22.6,9413.75,11205.5625
22.62,9420.25,11208.5625
22.64,9422.125,11212.375
22.66,9424.9375,11211.25
22.68,9426.9375,11211.125
22.7,9434.4375,11211.25
22.72,9444.875,11211.875
22.740000000000002,9457.9375,11207.1875
22.76,9468.6875,11203.6875
22.78,9473.375,11201.3125
22.8,9475.125,11200.5625
22.82,9473.5625,11200.6875
22.84,9472.4375,11199.3125
22.86,9473.6875,11199.5
22.88,9482.8125,11195.4375
22.900000000000002,9490.8125,11192.625
22.92,9503.0,11190.1875
22.94,9513.0625,11190.9375
22.96,9509.1875,11198.5625
22.98,9505.4375,11203.5625
23.0,9512.8125,11202.125
23.02,9523.5625,11200.875
23.04,9526.6875,11201.125
23.06,9527.125,11202.875
23.080000000000002,9530.75,11204.125
23.1,9533.75,11204.5
23.12,9537.125,11204.625
23.14,9541.5625,11202.5
23.16,9546.4375,11200.1875
23.18,9551.1875,11199.25
23.2,9556.5625,11198.125
23.22,9560.0,11197.25
23.240000000000002,9557.0,11199.5
23.26,9554.0625,11200.8125
23.28,9556.9375,11199.0
23.3,9552.8125,11202.375
23.32,9569.125,11194.5625
23.34,9581.375,11188.875
23.36,9588.125,11185.875
23.38,9588.125,11187.0625
23.400000000000002,9586.125,11185.375
23.42,9583.9375,11186.5
23.44,9584.6875,11188.25
23.46,9589.0,11184.625
23.48,9591.625,11181.75
23.5,9590.375,11181.0625
23.52,9583.6875,11187.5
23.54,9570.875,11194.1875
23.56,9572.0625,11189.8125
23.580000000000002,9589.125,11180.875
23.6,9600.4375,11175.875
23.62,9591.4375,11185.9375
23.64,9570.75,11190.5625
23.66,9561.125,11185.4375
23.68,9554.875,11177.875
23.7,9536.75,11173.9375
23.72,9512.5,11175.125
23.740000000000002,9484.75,11177.75
23.76,9463.9375,11183.6875
23.78,9453.1875,11186.0625
23.8,9447.5,11185.75
23.82,9435.0625,11187.375
23.84,9421.3125,11186.25
23.86,9395.4375,11184.0
23.88,9361.125,11180.75
23.900000000000002,9325.4375,11180.125
23.92,9318.1875,11176.875
23.94,9331.0625,11169.6875
23.96,9330.0625,11166.1875
23.98,9330.375,11162.625
24.0,9321.5,11165.875
24.02,9340.0625,11160.1875
24.04,9345.25,11160.875
24.060000000000002,9339.0625,11165.25
24.080000000000002,9327.375,11168.5625
24.1,9324.8125,11166.4375
24.12,9325.8125,11160.0625
24.14,9329.125,11153.0
24.16,9332.6875,11147.125
24.18,9333.6875,11144.3125
24.2,9334.125,11140.8125
24.22,9331.625,11136.625
24.240000000000002,9332.1875,11129.8125
24.26,9332.25,11119.75
24.28,9333.25,11107.625
24.3,9324.375,11101.0
24.32,9327.0625,11089.3125
24.34,9327.625,11078.6875
24.36,9331.5625,11064.375
24.38,9352.4375,11043.5
24.400000000000002,9396.875,11014.4375
24.42,9444.1875,10971.8125
24.44,9511.8125,10885.0625
24.46,9576.5,10796.9375
24.48,9635.5625,10678.375
24.5,9746.75,10579.125
24.52,9976.8125,10534.6875
24.54,9998.25,10441.6875
24.560000000000002,10019.125,10421.9375
24.580000000000002,10054.125,10473.5625
24.6,10084.1875,10513.125
24.62,10099.5,10524.0625
24.64,10101.1875,10560.6875
24.66,10090.9375,10600.0625
24.68,10069.0,10626.1875
24.7,10044.125,10637.3125
24.72,10045.75,10634.75
24.740000000000002,10058.8125,10623.5
24.76,10078.875,10597.4375
24.78,10089.8125,10564.125
24.8,10092.625,10535.25
24.82,10078.3125,10529.8125
24.84,10058.6875,10540.875
24.86,10035.125,10566.75
24.88,10010.0625,10612.75
24.900000000000002,10004.1875,10641.8125
24.92,10019.875,10643.4375
24.94,10043.875,10623.375
24.96,10062.875,10589.9375
24.98,10073.0625,10557.0625
25.0,10077.4375,10542.6875
25.02,10085.0625,10539.625
25.04,10085.875,10540.875
25.060000000000002,10096.9375,10522.5625
25.080000000000002,10110.375,10500.3125
25.1,10123.5,10479.875
25.12,10133.625,10462.25
25.14,10143.5,10460.375
25.16,10154.125,10471.3125
25.18,10163.875,10476.0625
25.2,10170.3125,10468.6875
25.22,10172.0625,10456.5625
25.240000000000002,10172.0625,10450.125
25.26,10170.1875,10450.125
25.28,10168.4375,10451.0625
25.3,10167.25,10452.1875
25.32,10168.8125,10452.0625
25.34,10173.5,10453.6875
25.36,10177.5,10454.25
25.38,10180.0625,10455.9375
25.400000000000002,10180.1875,10452.375
25.42,10179.875,10450.6875
25.44,10180.0625,10454.9375
25.46,10178.5,10460.125
25.48,10177.1875,10460.5
25.5,10175.875,10464.375
25.52,10177.375,10458.8125
25.54,10179.8125,10471.125
25.560000000000002,10180.3125,10467.375
25.580000000000002,10178.3125,10458.4375
25.6,10175.0625,10451.1875
25.62,10169.25,10448.8125
25.64,10167.0625,10446.4375
25.66,10168.3125,10443.75
25.68,10170.75,10452.75
25.7,10169.6875,10457.0
25.72,10166.6875,10451.75
25.740000000000002,10163.5625,10447.625
25.76,10158.75,10445.25
25.78,10154.4375,10446.4375
25.8,10151.8125,10452.6875
25.82,10152.5,10458.125
25.84,10154.6875,10451.75
25.86,10153.375,10451.0
25.88,10152.0625,10449.375
25.900000000000002,10149.5625,10455.1875
25.92,10147.4375,10462.6875
25.94,10147.5,10466.4375
25.96,10148.0,10466.9375
25.98,10147.1875,10468.875
26.0,10146.0,10474.6875
26.02,10143.9375,10478.375
26.04,10142.0,10477.25
26.060000000000002,10139.1875,10473.125
26.080000000000002,10135.5625,10472.3125
26.1,10132.875,10477.0
26.12,10131.8125,10484.6875
26.14,10131.6875,10488.3125
26.16,10131.8125,10487.0
26.18,10130.9375,10484.1875
26.2,10129.4375,10484.625
26.22,10128.1875,10486.5
26.240000000000002,10127.375,10483.75
26.26,10124.0,10490.0
26.28,10122.875,10496.0
26.3,10118.1875,10507.1875
26.32,10117.25,10502.0625
26.34,10114.625,10509.5625
26.36,10116.5,10503.0
26.38,10115.5,10503.375
26.400000000000002,10113.5625,10502.5
26.42,10113.3125,10505.875
26.44,10115.8125,10511.5
26.46,10118.0,10512.8125
26.48,10119.75,10505.5625
26.5,10119.625,10503.9375
26.52,10119.0625,10510.625
26.54,10119.0,10514.3125
26.560000000000002,10119.875,10512.0
26.580000000000002,10122.3125,10506.6875
26.6,10123.4375,10507.5625
26.62,10124.875,10509.9375
26.64,10125.6875,10517.1875
26.66,10126.4375,10519.25
26.68,10124.3125,10521.125
26.7,10122.4375,10526.8125
26.72,10119.6875,10529.6875
26.740000000000002,10118.25,10531.0
26.76,10116.3125,10530.8125
26.78,10115.8125,10532.0625
26.8,10115.375,10534.0625
26.82,10114.625,10534.5625
26.84,10113.8125,10537.3125
26.86,10113.625,10538.6875
26.88,10113.4375,10538.0
26.900000000000002,10114.375,10536.5625
26.92,10114.5,10538.5625
26.94,10114.625,10541.625
26.96,10114.5625,10545.0
26.98,10115.0,10546.5625
27.0,10116.0,10544.9375
27.02,10116.0,10545.5
27.04,10115.6875,10548.5625
27.060000000000002,10115.25,10552.6875
27.080000000000002,10114.375,10554.25
27.1,10113.625,10553.3125
27.12,10111.5625,10555.0625
27.14,10110.4375,10556.5
27.16,10111.5625,10554.1875
27.18,10111.6875,10555.1875
27.2,10108.4375,10562.8125
27.22,10105.4375,10569.125
27.240000000000002,10104.1875,10570.75
27.26,10102.0625,10577.375
27.28,10104.75,10577.0
27.3,10105.375,10580.0625
27.32,10103.625,10580.8125
27.34,10102.375,10580.25
27.36,10103.625,10581.9375
27.38,10106.25,10583.875
27.400000000000002,10109.9375,10578.875
27.42,10111.1875,10576.3125
27.44,10109.375,10580.1875
27.46,10107.8125,10585.125
27.48,10106.0625,10585.5
27.5,10104.9375,10583.5625
27.52,10108.9375,10581.5
27.54,10109.375,10582.5625
27.560000000000002,10110.0,10585.0625
27.580000000000002,10107.9375,10586.8125
27.6,10105.0,10590.4375
27.62,10103.0,10593.0625
27.64,10101.625,10594.625
27.66,10099.875,10594.5
27.68,10098.1875,10593.625
27.7,10096.9375,10594.9375
27.72,10096.75,10596.4375
27.740000000000002,10096.8125,10597.6875
27.76,10096.5625,10598.1875
27.78,10094.0,10600.625
27.8,10092.4375,10601.75
27.82,10091.125,10604.375
27.84,10089.5,10608.625
27.86,10087.875,10611.875
27.88,10088.0,10613.1875
27.900000000000002,10088.4375,10614.0
27.92,10086.9375,10615.875
27.94,10084.75,10618.0625
27.96,10083.0,10621.25
27.98,10081.4375,10625.1875
28.0,10080.5,10627.125
28.02,10079.8125,10628.25
28.04,10078.6875,10629.0625
28.060000000000002,10078.125,10629.25
28.080000000000002,10076.1875,10629.875
28.1,10075.4375,10629.125
28.12,10077.375,10626.0625
28.14,10078.5625,10625.6875
28.16,10079.0625,10625.6875
28.18,10077.4375,10627.875
28.2,10079.375,10621.3125
28.22,10077.125,10621.125
28.240000000000002,10080.3125,10619.1875
28.26,10081.0625,10620.75
28.28,10079.375,10621.625
28.3,10081.0625,10618.3125
28.32,10085.3125,10617.625
28.34,10092.0625,10611.875
28.36,10098.375,10603.0
28.38,10101.6875,10598.25
28.400000000000002,10101.375,10599.1875
28.42,10098.25,10604.125
28.44,10090.5625,10605.875
28.46,10082.1875,10601.5
28.48,10074.8125,10603.0625
28.5,10061.6875,10610.6875
28.52,10049.0625,10616.0
28.54,10039.5,10610.5625
28.560000000000002,10030.25,10598.8125
28.580000000000002,10020.5625,10584.6875
28.6,10007.6875,10576.1875
28.62,9996.375,10573.4375
28.64,9991.5625,10569.0625
28.66,9997.5,10564.9375
28.68,10012.25,10560.6875
28.7,10028.625,10550.0625
28.72,10036.0,10537.6875
28.740000000000002,10035.0,10535.25
28.76,10033.0,10535.3125
28.78,10030.3125,10534.625
28.8,10031.25,10531.1875
28.82,10032.25,10528.8125
28.84,10029.6875,10530.875
28.86,10027.625,10533.4375
28.88,10025.1875,10532.25
28.900000000000002,10019.625,10528.1875
28.92,10013.375,10524.1875
28.94,10010.75,10515.0
28.96,10010.875,10502.5625
28.98,10012.3125,10488.3125
29.0,10011.9375,10474.875
29.02,10008.375,10471.25
29.04,10008.3125,10471.75
29.060000000000002,10005.9375,10472.3125
29.080000000000002,10007.75,10465.1875
29.1,10005.0625,10470.25
29.12,10006.8125,10466.75
29.14,10004.1875,10469.875
29.16,10001.4375,10470.375
29.18,9999.0625,10477.4375
29.2,9998.625,10486.25
29.22,9998.875,10485.5625
29.240000000000002,10001.0625,10478.0625
29.26,10002.0625,10478.4375
29.28,9999.875,10487.125
29.3,9996.875,10496.0625
29.32,9995.6875,10496.9375
29.34,9997.5625,10490.875
29.36,9995.9375,10493.125
29.38,10001.8125,10489.5
29.400000000000002,10002.3125,10496.6875
29.42,10002.75,10501.25
29.44,9998.9375,10501.375
29.46,9993.5,10507.6875
29.48,9989.9375,10511.25
29.5,9990.75,10510.6875
29.52,9992.125,10510.25
29.54,9991.875,10511.6875
29.560000000000002,9991.625,10513.8125
29.580000000000002,9991.6875,10515.875
29.6,9992.125,10515.9375
29.62,9993.6875,10512.0
29.64,9997.1875,10509.4375
29.66,10000.625,10511.875
29.68,10003.125,10512.0
29.7,10007.25,10508.1875
29.72,10013.625,10506.1875
29.740000000000002,10022.5625,10507.0625
29.76,10033.1875,10505.1875
29.78,10044.0625,10505.125
29.8,10055.6875,10507.375
29.82,10066.6875,10512.6875
29.84,10077.125,10519.8125
29.86,10090.125,10523.9375
29.88,10100.5625,10529.5625
29.900000000000002,10102.8125,10539.8125
29.92,10101.125,10546.875
29.94,10102.25,10554.125
29.96,10105.3125,10562.625
29.98,10110.8125,10569.0
30.0,10111.625,10574.75
30.02,10110.0625,10578.0
30.04,10109.8125,10581.5625
30.060000000000002,10109.1875,10590.8125
30.080000000000002,10107.5625,10599.25
30.1,10103.3125,10601.25
30.12,10100.125,10597.8125
30.14,10096.8125,10598.8125
30.16,10093.5,10605.625
30.18,10088.625,10609.8125
30.2,10081.8125,10611.8125
30.22,10080.8125,10612.625
30.240000000000002,10082.5625,10615.5
30.26,10084.5,10619.25
30.28,10082.3125,10624.0
30.3,10077.5,10634.4375
30.32,10073.375,10643.0625
30.34,10071.75,10646.25
30.36,10071.625,10643.0625
30.38,10069.125,10640.125
30.400000000000002,10063.3125,10644.1875
30.42,10056.75,10648.8125
30.44,10054.0,10648.5
30.46,10053.6875,10647.5
30.48,10051.25,10648.1875
30.5,10048.0,10650.0
30.52,10047.625,10652.125
30.54,10048.75,10652.5625
30.560000000000002,10048.5625,10655.1875
30.580000000000002,10045.875,10658.0625
30.6,10042.9375,10660.4375
30.62,10041.8125,10660.6875
30.64,10041.9375,10662.25
30.66,10040.0,10666.375
30.68,10037.0625,10670.75
30.7,10036.625,10672.9375
30.72,10035.4375,10674.6875
30.740000000000002,10032.75,10676.4375
30.76,10033.6875,10675.75
30.78,10036.4375,10670.875
30.8,10037.125,10663.4375
30.82,10038.3125,10655.0625
30.84,10043.0625,10647.0
30.86,10045.125,10639.5
30.88,10048.75,10630.375
30.900000000000002,10051.5,10623.625
30.92,10046.375,10627.125
30.94,10040.75,10624.1875
30.96,10030.5625,10615.1875
30.98,10021.125,10612.3125
31.0,10014.9375,10614.9375
31.02,10019.1875,10615.8125
31.04,10050.5,10617.9375
31.060000000000002,10085.9375,10634.3125
31.080000000000002,10123.125,10654.0
31.1,10171.625,10669.1875
31.12,10203.1875,10701.0
31.14,10215.125,10738.3125
31.16,10217.625,10775.25
31.18,10217.375,10804.0
31.2,10206.5625,10824.8125
31.220000000000002,10197.0,10831.8125
31.240000000000002,10193.4375,10832.625
31.26,10183.0,10840.375
31.28,10166.125,10853.8125
31.3,10144.1875,10876.375
31.32,10117.6875,10903.125
31.34,10079.125,10931.5625
31.36,10029.5625,10952.6875
31.38,9981.875,10966.8125
31.400000000000002,9947.8125,10978.9375
31.42,9903.4375,10996.4375
31.44,9834.8125,11016.3125
31.46,9759.8125,11038.0
31.48,9703.0,11059.1875
31.5,9647.125,11079.6875
31.52,9592.875,11099.25
31.54,9542.25,11112.4375
31.560000000000002,9500.9375,11122.5625
31.580000000000002,9468.0625,11124.25
31.6,9445.9375,11121.4375
31.62,9430.375,11119.9375
31.64,9412.3125,11117.5
31.66,9391.6875,11115.0
31.68,9376.75,11111.6875
31.7,9371.4375,11110.1875
31.720000000000002,9366.5625,11108.25
31.740000000000002,9369.25,11101.75
31.76,9360.0625,11101.5625
31.78,9361.9375,11092.25
31.8,9354.875,11094.0
31.82,9358.3125,11089.8125
31.84,9351.75,11089.5625
31.86,9337.6875,11090.9375
31.88,9316.1875,11093.0625
31.900000000000002,9296.875,11095.25
31.92,9281.3125,11096.125
31.94,9276.0625,11095.125
31.96,9272.75,11094.6875
31.98,9269.125,11095.25
32.0,9261.6875,11096.9375
32.02,9245.875,11100.75
32.04,9239.0,11101.0625
32.06,9226.5,11103.5
32.08,9227.0,11102.8125
32.1,9225.0,11103.0
32.12,9221.0625,11103.375
32.14,9213.5,11103.375
32.160000000000004,9190.3125,11104.6875
32.18,9174.25,11104.1875
32.2,9166.3125,11105.25
32.22,9151.5625,11108.4375
32.24,9137.4375,11109.3125
32.26,9129.875,11110.25
32.28,9118.5625,11113.375
32.3,9095.5625,11116.5625
32.32,9080.75,11117.5625
32.34,9066.125,11117.625
32.36,9046.375,11120.6875
32.38,9022.75,11123.8125
32.4,8997.0,11125.1875
32.42,8973.5625,11124.875
32.44,8964.3125,11121.75
32.46,8963.5625,11121.1875
32.480000000000004,8956.5,11122.1875
32.5,8953.4375,11123.0
32.52,8949.125,11122.5
32.54,8941.8125,11121.25
32.56,8930.125,11120.3125
32.58,8917.125,11120.875
32.6,8902.875,11122.6875
32.62,8912.0,11118.5
32.64,8902.25,11121.625
32.660000000000004,8902.0,11119.9375
32.68,8905.8125,11116.125
32.7,8907.0625,11112.9375
32.72,8903.875,11111.6875
32.74,8897.875,11111.8125
32.76,8881.8125,11112.0625
32.78,8869.0625,11110.5625
32.8,8869.875,11108.875
32.82,8874.4375,11105.625
32.84,8880.1875,11102.25
32.86,8890.1875,11097.75
32.88,8898.25,11094.4375
32.9,8888.3125,11098.0
32.92,8888.8125,11094.375
32.94,8888.0,11092.4375
32.96,8889.0,11091.5
32.980000000000004,8893.8125,11088.125
33.0,8894.875,11087.5
33.02,8890.4375,11088.375
33.04,8890.6875,11086.9375
33.06,8890.0625,11086.1875
33.08,8888.125,11085.25
33.1,8886.5,11082.0625
33.12,8889.25,11078.9375
33.14,8886.625,11078.25
33.160000000000004,8885.8125,11077.25
33.18,8885.5625,11077.0625
33.2,8878.625,11080.625
33.22,8880.5,11078.375
33.24,8887.1875,11075.5625
33.26,8890.125,11074.8125
33.28,8892.0,11073.5625
33.3,8897.625,11071.5625
33.32,8899.25,11071.9375
33.34,8893.125,11075.5625
33.36,8892.0,11075.5625
33.38,8899.9375,11071.5625
33.4,8911.125,11069.0
33.42,8916.875,11067.0625
33.44,8916.0625,11069.875
33.46,8918.625,11069.0625
33.480000000000004,8920.6875,11069.8125
33.5,8937.375,11063.375
33.52,8951.3125,11060.1875
33.54,8965.3125,11060.0
33.56,8966.5625,11062.9375
33.58,8970.1875,11058.6875
33.6,8984.25,11051.0
33.62,8994.4375,11047.5625
33.64,9001.9375,11044.125
33.660000000000004,9016.9375,11037.875
33.68,9030.0,11035.1875
33.7,9037.5,11033.0625
33.72,9044.875,11028.9375
33.74,9051.8125,11025.8125
33.76,9060.0,11020.25
33.78,9060.5,11023.3125
33.8,9066.0,11020.8125
33.82,9063.75,11021.5
33.84,9066.375,11020.625
33.86,9074.4375,11014.375
33.88,9085.1875,11008.375
33.9,9087.3125,11008.8125
33.92,9092.6875,11005.0625
33.94,9103.0625,11002.4375
33.96,9115.125,11001.6875
33.980000000000004,9125.1875,11000.25
34.0,9139.875,10998.9375
34.02,9152.6875,10995.9375
34.04,9165.875,10991.5625
34.06,9184.3125,10982.125
34.08,9211.1875,10970.3125
34.1,9246.0625,10968.5
34.12,9279.3125,10974.75
34.14,9316.1875,10995.5625
34.160000000000004,9355.125,11000.0
34.18,9384.3125,10986.3125
34.2,9420.8125,10970.3125
34.22,9456.6875,10954.6875
34.24,9501.0625,10939.375
34.26,9539.9375,10929.1875
34.28,9573.875,10918.0625
34.300000000000004,9599.125,10924.0
34.32,9636.375,10923.4375
34.34,9685.75,10932.375
34.36,9754.8125,10937.6875
34.38,9822.8125,10966.1875
34.4,9951.8125,11025.5
34.42,10036.5625,11037.375
34.44,10071.625,11026.5
34.46,10100.5625,11011.875
34.480000000000004,10128.875,10992.1875
34.5,10150.5625,10969.25
34.52,10163.5,10945.6875
34.54,10173.1875,10925.4375
34.56,10180.3125,10906.375
34.58,10188.1875,10885.625
34.6,10189.8125,10872.875
34.62,10194.1875,10852.75
34.64,10192.1875,10844.1875
34.660000000000004,10195.5625,10831.1875
34.68,10195.8125,10818.9375
34.7,10191.6875,10817.125
34.72,10190.3125,10821.1875
34.74,10196.6875,10820.0625
34.76,10217.8125,10801.25
34.78,10223.375,10780.5625
34.800000000000004,10223.0625,10775.4375
34.82,10221.5625,10780.0
34.84,10219.25,10786.75
34.86,10220.1875,10789.75
34.88,10221.75,10788.1875
34.9,10221.9375,10779.875
34.92,10219.5,10771.8125
34.94,10219.625,10771.375
34.96,10217.875,10773.0625
34.980000000000004,10215.375,10774.5
35.0,10211.125,10772.5
35.02,10207.4375,10759.1875
35.04,10204.125,10742.75
35.06,10199.25,10735.9375
35.08,10197.625,10724.5
35.1,10190.375,10732.75
35.12,10186.5625,10723.1875
35.14,10182.125,10724.4375
35.160000000000004,10181.0,10714.3125
35.18,10173.9375,10717.1875
35.2,10165.8125,10722.25
35.22,10158.25,10723.0625
35.24,10152.4375,10711.25
35.26,10146.0,10682.25
35.28,10135.875,10646.1875
35.300000000000004,10123.9375,10618.25
35.32,10117.625,10613.5
35.34,10116.1875,10624.875
35.36,10109.625,10642.625
35.38,10102.8125,10657.4375
35.4,10094.75,10682.5625
35.42,10092.5625,10700.1875
35.44,10082.5,10716.3125
35.46,10079.25,10717.9375
35.480000000000004,10071.25,10714.6875
35.5,10060.875,10709.375
35.52,10059.8125,10706.4375
35.54,10068.0625,10706.625
35.56,10070.625,10709.8125
35.58,10070.125,10717.0625
35.6,10072.9375,10721.5
35.62,10075.25,10722.75
35.64,10071.9375,10723.375
35.660000000000004,10066.75,10727.5625
35.68,10065.0,10731.5625
35.7,10064.125,10731.4375
35.72,10065.375,10721.1875
35.74,10065.25,10708.5625
35.76,10062.25,10708.625
35.78,10055.4375,10722.875
35.800000000000004,10049.0,10731.1875
35.82,10044.5,10730.0625
35.84,10044.4375,10721.875
35.86,10044.4375,10727.1875
35.88,10047.8125,10735.6875
35.9,10053.3125,10737.1875
35.92,10051.25,10737.125
35.94,10048.75,10738.75
35.96,10045.3125,10746.0
35.980000000000004,10052.0,10736.125
36.0,10049.375,10738.875
36.02,10060.5625,10742.0
36.04,10057.8125,10762.625
36.06,10036.25,10783.375
36.08,10019.5,10800.0
36.1,10022.6875,10798.375
36.12,10025.1875,10788.5
36.14,10022.125,10773.5
36.160000000000004,10034.8125,10735.3125
36.18,10047.9375,10691.1875
36.2,10043.9375,10660.375
36.22,10023.5625,10647.6875
36.24,9995.25,10641.4375
36.26,9966.1875,10635.875
36.28,9965.8125,10618.5
36.300000000000004,9982.3125,10594.25
36.32,10001.3125,10568.5
36.34,10014.5,10543.875
36.36,10024.3125,10522.125
36.38,10024.625,10500.5625
36.4,10014.8125,10470.8125
36.42,9998.4375,10417.5625
36.44,9977.0625,10345.8125
36.46,9945.875,10259.375
36.480000000000004,9909.125,10177.6875
36.5,9873.25,10110.1875
36.52,9840.5,10049.375
36.54,9821.5,10012.6875
36.56,9823.4375,10009.0
36.58,9841.25,10036.625
36.6,9862.5625,10073.5625
36.62,9879.625,10102.1875
36.64,9888.6875,10116.4375
36.660000000000004,9889.5,10118.375
36.68,9878.625,10103.875
36.7,9867.9375,10090.75
36.72,9860.3125,10078.3125
36.74,9858.875,10073.9375
36.76,9857.9375,10075.3125
36.78,9842.375,10049.1875
36.800000000000004,9832.25,10032.875
36.82,9814.5625,9998.25
36.84,9813.3125,9996.125
36.86,9803.3125,9983.375
36.88,9804.9375,9988.6875
36.9,9808.75,9994.625
36.92,9813.4375,9998.875
36.94,9821.0,10011.875
36.96,9827.3125,10024.875
36.980000000000004,9841.0625,10052.5625
37.0,9854.0,10078.5
37.02,9862.0,10095.125
37.04,9860.5,10091.625
37.06,9848.25,10065.5
37.08,9827.5625,10028.375
37.1,9814.5625,10006.625
37.12,9802.375,9987.375
37.14,9809.875,9999.6875
37.160000000000004,9807.875,9997.125
37.18,9806.9375,9998.25
37.2,9802.9375,9997.75
37.22,9804.0625,10011.4375
37.24,9799.1875,10013.25
37.26,9787.25,9999.0625
37.28,9777.0,9988.5625
37.300000000000004,9769.625,9979.5
37.32,9768.9375,9980.5
37.34,9778.625,9996.1875
37.36,9793.4375,10024.6875
37.38,9806.0,10048.75
37.4,9808.5625,10051.9375
37.42,9809.875,10052.125
37.44,9813.75,10057.125
37.46,9810.4375,10051.25
37.480000000000004,9794.9375,10029.125
37.5,9773.8125,9998.75
37.52,9749.1875,9964.25
37.54,9727.6875,9935.3125
37.56,9715.625,9923.4375
37.58,9713.875,9926.875
37.6,9711.0625,9926.4375
37.62,9708.3125,9923.1875
37.64,9690.5,9900.5
37.660000000000004,9686.0625,9896.8125
37.68,9672.0,9882.0
37.7,9675.3125,9892.375
37.72,9686.625,9914.8125
37.74,9699.6875,9935.625
37.76,9715.875,9949.375
37.78,9737.125,9962.0625
37.800000000000004,9759.4375,9981.1875
37.82,9754.1875,9962.4375
37.84,9698.6875,9866.8125
37.86,9609.375,9728.3125
37.88,9526.3125,9609.5625
37.9,9468.125,9529.9375
37.92,9445.75,9502.0
37.94,9400.5,9440.25
37.96,9350.625,9377.3125
37.980000000000004,9327.0625,9350.375
38.0,9328.0,9352.625
38.02,9320.6875,9341.3125
38.04,9298.375,9311.9375
38.06,9272.6875,9279.75
38.08,9241.0,9241.1875
38.1,9210.875,9216.9375
38.12,9195.8125,9201.6875
38.14,9178.875,9182.1875
38.160000000000004,9172.0625,9176.3125
38.18,9169.1875,9175.1875
38.2,9169.5,9176.5
38.22,9161.1875,9166.625
38.24,9149.0625,9152.5625
38.26,9140.25,9143.6875
38.28,9136.1875,9142.375
38.300000000000004,9145.9375,9157.375
38.32,9162.8125,9179.6875
38.34,9186.9375,9211.4375
38.36,9221.5625,9256.9375
38.38,9262.8125,9309.1875
38.4,9301.25,9358.125
38.42,9334.6875,9403.0
38.44,9364.125,9444.5625
38.46,9375.375,9460.625
38.480000000000004,9356.8125,9434.4375
38.5,9330.0,9395.0625
38.52,9313.5625,9373.3125
38.54,9289.0625,9342.75
38.56,9276.0625,9325.5625
38.58,9235.25,9273.0625
38.6,9208.1875,9239.375
38.62,9186.0,9211.75
38.64,9169.9375,9190.5
38.660000000000004,9156.125,9171.1875
38.68,9140.3125,9151.3125
38.7,9115.9375,9121.5625
38.72,9087.25,9086.1875
38.74,9072.125,9066.25
38.76,9062.9375,9053.375
38.78,9057.1875,9044.5
38.800000000000004,9051.6875,9036.25
38.82,9043.4375,9024.5625
38.84,9035.1875,9010.25
38.86,9024.0625,8997.5625
38.88,9015.125,8987.625
38.9,9007.375,8978.625
38.92,8994.125,8962.8125
38.94,8975.8125,8940.8125
38.96,8959.5625,8922.25
38.980000000000004,8946.0,8906.3125
39.0,8943.8125,8903.25
39.02,8942.3125,8901.375
39.04,8937.625,8894.9375
39.06,8926.5,8881.3125
39.08,8912.375,8864.625
39.1,8902.3125,8853.9375
39.12,8893.5,8844.0625
39.14,8879.4375,8828.875
39.160000000000004,8856.9375,8805.625
39.18,8845.875,8794.5625
39.2,8843.875,8792.875
39.22,8846.6875,8796.375
39.24,8843.5625,8792.5
39.26,8834.75,8782.1875
39.28,8827.8125,8774.25
39.300000000000004,8823.1875,8769.625
39.32,8815.4375,8761.1875
39.34,8811.75,8758.375
39.36,8812.125,8758.3125
39.38,8807.6875,8755.5
39.4,8816.875,8763.3125
39.42,8815.8125,8765.0
39.44,8806.375,8753.0625
39.46,8804.25,8750.875
39.480000000000004,8805.3125,8751.4375
39.5,8813.25,8760.6875
39.52,8820.0625,8768.9375
39.54,8822.875,8771.0
39.56,8826.3125,8775.1875
39.58,8831.625,8781.75
39.6,8839.125,8791.4375
39.62,8841.6875,8793.9375
39.64,8840.9375,8792.3125
39.660000000000004,8843.1875,8795.8125
39.68,8849.0,8805.8125
39.7,8849.875,8806.125
39.72,8868.5,8831.8125
39.74,8883.9375,8849.9375
39.76,8900.0625,8870.4375
39.78,8898.25,8868.25
39.800000000000004,8889.75,8859.375
39.82,8884.3125,8854.0
39.84,8884.9375,8856.4375
39.86,8895.0625,8868.375
39.88,8903.0625,8877.875
39.9,8905.1875,8881.625
39.92,8905.75,8882.5625
39.94,8897.625,8872.75
39.96,8897.6875,8872.4375
39.980000000000004,8907.3125,8883.4375
40.0,8915.5,8892.8125
40.02,8914.5,8892.0
40.04,8910.5,8889.0
40.06,8914.5625,8895.9375
40.08,8934.8125,8922.5625
40.1,8966.8125,8960.875
40.12,9033.3125,9043.625
40.14,9140.5,9178.4375
40.160000000000004,9296.875,9382.3125
40.18,9485.1875,9636.8125
40.2,9665.4375,9893.75
40.22,9814.1875,10126.5
40.24,9921.875,10307.5
40.26,9997.625,10461.8125
40.28,10043.875,10571.5625
40.300000000000004,10072.4375,10687.6875
40.32,10087.875,10756.125
40.34,10087.9375,10809.875
40.36,10086.75,10845.75
40.38,10091.75,10873.75
40.4,10092.625,10907.75
40.42,10088.875,10940.25
40.44,10089.5625,10967.75
40.46,10088.0625,10997.6875
40.480000000000004,10102.75,11032.5
40.5,10087.9375,11065.5625
40.52,10063.3125,11089.75
40.54,10065.4375,11101.6875
40.56,10041.375,11113.3125
40.58,10008.9375,11123.4375
40.6,9962.25,11141.375
40.62,9936.375,11158.375
40.64,9971.9375,11158.0
40.660000000000004,10032.4375,11141.75
40.68,10073.875,11125.75
40.7,10101.1875,11106.125
40.72,10165.375,11072.5
40.74,10227.375,11026.375
40.76,10257.6875,10971.1875
40.78,10288.875,10914.125
40.800000000000004,10310.375,10856.25
40.82,10319.875,10835.6875
40.84,10317.625,10839.5
40.86,10308.0625,10835.625
40.88,10307.125,10831.0
40.9,10312.1875,10801.9375
40.92,10303.8125,10716.0625
40.94,10291.25,10652.3125
40.96,10298.6875,10621.75
40.980000000000004,10324.0625,10624.625
41.0,10335.5625,10598.125
41.02,10329.625,10549.375
41.04,10326.3125,10511.8125
41.06,10362.9375,10599.1875
41.08,10390.5625,10697.3125
41.1,10394.1875,10814.5625
41.12,10404.4375,10812.4375
41.14,10410.9375,10778.125
41.160000000000004,10410.0,10780.625
41.18,10421.3125,10800.3125
41.2,10439.3125,10816.0
41.22,10433.75,10810.5625
41.24,10417.9375,10779.125
41.26,10405.0625,10750.9375
41.28,10404.3125,10715.4375
41.300000000000004,10398.3125,10658.0625
41.32,10383.8125,10626.4375
41.34,10369.75,10639.6875
41.36,10357.4375,10650.5625
41.38,10351.6875,10639.9375
41.4,10338.875,10621.75
41.42,10322.8125,10598.3125
41.44,10313.0625,10587.0
41.46,10302.8125,10560.125
41.480000000000004,10291.125,10521.75
41.5,10275.3125,10499.5
41.52,10265.3125,10470.375
41.54,10256.25,10442.375
41.56,10247.1875,10414.6875
41.58,10243.5,10407.5625
41.6,10246.3125,10420.9375
41.62,10248.5625,10427.625
41.64,10248.25,10414.9375
41.660000000000004,10245.9375,10402.3125
41.68,10245.625,10406.5625
41.7,10242.875,10402.4375
41.72,10240.25,10398.875
41.74,10242.875,10404.8125
41.76,10252.1875,10433.0
41.78,10253.6875,10437.75
41.800000000000004,10250.5625,10436.1875
41.82,10244.3125,10437.9375
41.84,10239.0,10451.125
41.86,10235.875,10466.5
41.88,10226.375,10468.375
41.9,10205.8125,10448.1875
41.92,10178.5625,10436.4375
41.94,10156.875,10451.375
41.96,10148.6875,10486.4375
41.980000000000004,10147.5625,10522.6875
42.0,10134.25,10560.6875
42.02,10113.3125,10586.0
42.04,10097.8125,10608.6875
42.06,10096.9375,10635.8125
42.08,10074.0,10670.9375
42.1,10038.375,10695.4375
42.12,9989.1875,10702.25
42.14,9944.75,10698.0625
42.160000000000004,9898.0625,10706.75
42.18,9918.1875,10715.6875
42.2,9981.1875,10718.875
42.22,10038.1875,10716.8125
42.24,10067.3125,10722.625
42.26,10072.625,10740.0
42.28,10053.1875,10758.125
42.300000000000004,10036.0625,10763.9375
42.32,10042.75,10755.1875
42.34,10065.375,10744.0625
42.36,10084.375,10735.25
42.38,10095.875,10729.375
42.4,10095.1875,10729.8125
42.42,10098.5625,10728.6875
42.44,10111.0,10725.6875
42.46,10118.8125,10727.125
42.480000000000004,10123.6875,10725.75
42.5,10117.875,10722.0625
42.52,10107.3125,10720.5
42.54,10107.125,10715.8125
42.56,10109.0625,10712.625
42.58,10108.9375,10711.3125
42.6,10116.75,10707.4375
42.62,10129.0,10700.9375
42.64,10139.4375,10698.5
42.660000000000004,10146.9375,10706.375
42.68,10154.6875,10721.375
42.7,10166.5625,10731.0625
42.72,10178.8125,10731.8125
42.74,10189.875,10730.0
42.76,10199.1875,10726.0625
42.78,10212.5,10713.1875
42.800000000000004,10230.0625,10688.1875
42.82,10249.0625,10654.25
42.84,10265.3125,10619.375
42.86,10276.625,10595.5625
42.88,10285.9375,10583.6875
42.9,10291.1875,10576.375
42.92,10293.75,10574.0625
42.94,10296.25,10570.5
42.96,10296.5625,10564.3125
42.980000000000004,10295.125,10561.3125
43.0,10295.25,10560.0
43.02,10292.5625,10566.5
43.04,10286.75,10576.5625
43.06,10284.3125,10571.4375
43.08,10283.0625,10574.5
43.1,10281.9375,10561.5625
43.12,10279.1875,10553.4375
43.14,10276.75,10564.0625
43.160000000000004,10277.125,10560.3125
43.18,10281.1875,10553.25
43.2,10283.375,10545.875
43.22,10282.8125,10542.9375
43.24,10282.0,10546.5
43.26,10283.4375,10553.6875
43.28,10286.1875,10551.6875
43.300000000000004,10286.5,10541.75
43.32,10285.875,10533.3125
43.34,10286.625,10527.75
43.36,10288.0625,10540.6875
43.38,10287.1875,10540.125
43.4,10286.5625,10545.1875
43.42,10287.375,10549.3125
43.44,10286.5625,10556.5625
43.46,10285.875,10567.0
43.480000000000004,10284.6875,10573.3125
43.5,10284.0,10575.125
43.52,10284.6875,10575.875
43.54,10290.8125,10578.25
43.56,10302.0,10586.8125
43.58,10322.625,10601.25
43.6,10346.4375,10618.25
43.62,10360.0625,10631.875
43.64,10361.5,10650.75
43.660000000000004,10355.3125,10658.625
43.68,10350.0625,10653.9375
43.7,10351.125,10644.75
43.72,10354.75,10638.0
43.74,10359.375,10629.25
43.76,10365.375,10630.125
43.78,10372.625,10632.75
43.800000000000004,10379.9375,10638.6875
43.82,10383.75,10645.125
43.84,10384.0,10638.125
43.86,10384.5625,10622.1875
43.88,10389.6875,10616.3125
43.9,10395.375,10610.6875
43.92,10395.6875,10588.875
43.94,10392.75,10565.9375
43.96,10390.1875,10545.3125
43.980000000000004,10393.8125,10555.5
44.0,10394.875,10550.375
44.02,10397.4375,10549.6875
44.04,10393.875,10539.125
44.06,10390.875,10532.0625
44.08,10394.1875,10539.5625
44.1,10397.5,10547.3125
44.12,10397.4375,10545.375
44.14,10394.8125,10540.5625
44.160000000000004,10391.8125,10530.0
44.18,10391.0,10527.5
44.2,10390.75,10531.375
44.22,10390.1875,10529.5
44.24,10384.0,10517.0
44.26,10378.25,10505.9375
44.28,10382.625,10517.4375
44.300000000000004,10384.375,10517.8125
44.32,10383.3125,10518.375
44.34,10375.6875,10509.5
44.36,10372.4375,10510.5
44.38,10378.6875,10523.0
44.4,10381.6875,10530.75
44.42,10379.125,10529.5
44.44,10375.25,10525.6875
44.46,10373.4375,10519.5625
44.480000000000004,10371.5625,10514.5625
44.5,10366.6875,10504.5
44.52,10363.625,10498.625
44.54,10365.0625,10498.375
44.56,10370.4375,10510.1875
44.58,10371.5625,10512.6875
44.6,10365.875,10501.4375
44.62,10357.75,10489.0625
44.64,10353.0,10488.5625
44.660000000000004,10354.0625,10502.1875
44.68,10355.25,10509.1875
44.7,10352.75,10504.375
44.72,10350.25,10500.0
44.74,10345.125,10492.6875
44.76,10337.5625,10481.1875
44.78,10335.9375,10476.0
44.800000000000004,10339.0,10481.5
44.82,10341.3125,10487.625
44.84,10342.0625,10486.875
44.86,10337.5,10470.6875
44.88,10331.5625,10458.25
44.9,10324.5625,10445.0625
44.92,10326.0625,10454.0625
44.94,10323.0625,10442.8125
44.96,10325.0,10439.5625
44.980000000000004,10322.375,10437.1875
45.0,10322.375,10443.75
45.02,10323.6875,10446.5
45.04,10319.6875,10434.0
45.06,10314.9375,10418.6875
45.08,10312.5625,10412.125
45.1,10312.625,10413.375
45.12,10312.6875,10411.9375
45.14,10309.5625,10400.625
45.160000000000004,10307.0625,10392.6875
45.18,10303.125,10385.9375
45.2,10301.0,10380.8125
45.22,10303.375,10383.9375
45.24,10297.3125,10370.8125
45.26,10299.5,10375.25
45.28,10300.5,10379.0625
45.300000000000004,10299.125,10376.1875
45.32,10296.875,10372.6875
45.34,10294.1875,10367.5625
45.36,10291.3125,10360.9375
45.38,10290.4375,10358.6875
45.4,10289.9375,10358.5
45.42,10288.625,10356.5
45.44,10284.75,10349.1875
45.46,10278.0625,10334.125
45.480000000000004,10270.1875,10318.1875
45.5,10263.375,10305.375
45.52,10258.0,10296.25
45.54,10254.625,10291.1875
45.56,10249.5,10283.125
45.58,10247.5625,10282.125
45.6,10249.1875,10286.25
45.62,10251.25,10290.5
45.64,10248.5625,10287.375
45.660000000000004,10246.0625,10285.5625
45.68,10245.5625,10284.4375
45.7,10241.9375,10276.5625
45.72,10241.9375,10278.625
45.74,10243.375,10280.5
45.76,10241.1875,10279.4375
45.78,10236.4375,10268.625
45.800000000000004,10239.125,10276.9375
45.82,10236.3125,10273.625
45.84,10244.25,10286.875
45.86,10246.6875,10291.5625
45.88,10247.75,10292.5625
45.9,10246.75,10290.6875
45.92,10249.875,10297.875
45.94,10253.625,10305.375
45.96,10256.9375,10309.9375
45.980000000000004,10255.5,10306.0
46.0,10251.625,10297.875
46.02,10251.0,10298.5
46.04,10251.9375,10299.5
46.06,10260.0,10314.75
46.08,10254.75,10306.25
46.1,10260.25,10314.875
46.12,10261.375,10318.125
46.14,10263.4375,10322.6875
46.160000000000004,10266.125,10329.75
46.18,10266.375,10330.1875
46.2,10267.0,10333.375
46.22,10267.5625,10336.3125
46.24,10267.6875,10335.8125
46.26,10266.0,10332.1875
46.28,10267.5625,10334.5
46.300000000000004,10270.125,10338.6875
46.32,10269.1875,10337.75
46.34,10266.125,10333.875
46.36,10266.0625,10334.125
46.38,10268.875,10339.375
46.4,10270.625,10342.5625
46.42,10269.5,10342.375
46.44,10270.5625,10345.5
46.46,10275.4375,10354.3125
46.480000000000004,10277.9375,10358.875
46.5,10275.8125,10354.3125
46.52,10273.8125,10350.625
46.54,10271.9375,10345.0
46.56,10271.5,10342.25
46.58,10270.25,10343.1875
46.6,10262.5,10331.0625
46.62,10261.9375,10333.8125
46.64,10251.0625,10314.6875
46.660000000000004,10251.0625,10318.125
46.68,10252.125,10331.0
46.7,10253.8125,10349.6875
46.72,10250.5625,10358.0
46.74,10242.875,10350.9375
46.76,10242.125,10351.5
46.78,10242.5625,10359.375
46.800000000000004,10238.1875,10362.75
46.82,10225.375,10343.8125
46.84,10208.1875,10313.875
46.86,10194.5625,10291.25
46.88,10194.0,10298.5
46.9,10201.0625,10322.6875
46.92,10208.6875,10354.875
46.94,10207.375,10365.75
46.96,10204.75,10370.75
46.980000000000004,10199.4375,10356.25
47.0,10204.0,10360.3125
47.02,10212.6875,10379.6875
47.04,10216.4375,10401.3125
47.06,10212.1875,10407.5
47.08,10201.125,10392.0
47.1,10191.4375,10379.4375
47.12,10183.1875,10375.3125
47.14,10175.8125,10373.0625
47.160000000000004,10176.0,10385.3125
47.18,10185.6875,10421.375
47.2,10195.5,10462.4375
47.22,10203.3125,10482.625
47.24,10214.6875,10499.25
47.26,10228.0625,10523.0
47.28,10244.1875,10562.6875
47.300000000000004,10260.6875,10606.5
47.32,10277.1875,10660.6875
47.34,10289.9375,10721.25
47.36,10297.5,10771.6875
47.38,10291.4375,10802.0
47.4,10284.6875,10822.75
47.42,10292.875,10816.0
47.44,10299.75,10815.0625
47.46,10300.3125,10827.5
47.480000000000004,10302.0625,10834.25
47.5,10308.25,10837.0
47.52,10320.875,10813.125
47.54,10332.625,10794.625
47.56,10340.875,10775.75
47.58,10341.0,10752.375
47.6,10341.8125,10746.8125
47.62,10346.6875,10748.1875
47.64,10353.1875,10752.125
47.660000000000004,10354.0625,10745.3125
47.68,10350.875,10738.25
47.7,10349.6875,10735.8125
47.72,10350.25,10729.375
47.74,10352.1875,10727.25
47.76,10354.4375,10730.5
47.78,10356.6875,10734.625
47.800000000000004,10358.75,10736.5625
47.82,10357.5625,10751.6875
47.84,10355.5625,10761.625
47.86,10352.125,10759.625
47.88,10350.5625,10768.625
47.9,10351.3125,10781.9375
47.92,10352.5625,10780.8125
47.94,10353.625,10767.6875
47.96,10352.875,10752.125
47.980000000000004,10355.25,10757.5
48.0,10359.875,10773.5
48.02,10362.0,10791.0
48.04,10360.9375,10798.3125
48.06,10360.0625,10800.3125
48.08,10357.125,10802.125
48.1,10353.6875,10809.375
48.120000000000005,10355.4375,10809.75
48.14,10358.25,10800.0625
48.160000000000004,10358.0,10805.875
48.18,10360.875,10825.25
48.2,10365.5625,10824.1875
48.22,10367.8125,10813.625
48.24,10368.4375,10794.125
48.26,10357.625,10777.1875
48.28,10340.5625,10760.75
48.300000000000004,10318.375,10778.75
48.32,10281.125,10779.3125
48.34,10231.5625,10802.5
48.36,10203.125,10812.75
48.38,10189.1875,10829.0625
48.4,10181.75,10840.4375
48.42,10189.625,10832.6875
48.44,10204.5625,10822.4375
48.46,10219.5,10816.875
48.480000000000004,10229.3125,10810.875
48.5,10225.5,10832.0625
48.52,10220.0625,10861.0
48.54,10214.5625,10885.375
48.56,10214.875,10891.625
48.58,10220.625,10885.0625
48.6,10236.6875,10872.8125
48.620000000000005,10257.375,10861.25
48.64,10271.1875,10850.875
48.660000000000004,10276.75,10843.75
48.68,10277.3125,10851.4375
48.7,10278.875,10859.0625
48.72,10280.5,10866.9375
48.74,10281.1875,10877.0
48.76,10288.25,10875.125
48.78,10296.3125,10867.6875
48.800000000000004,10300.75,10865.375
48.82,10304.4375,10871.9375
48.84,10309.5,10876.875
48.86,10316.3125,10878.875
48.88,10322.9375,10878.9375
48.9,10329.4375,10881.4375
48.92,10338.9375,10875.8125
48.94,10348.4375,10864.3125
48.96,10353.4375,10865.0
48.980000000000004,10356.125,10873.1875
49.0,10356.9375,10883.9375
49.02,10355.625,10896.4375
49.04,10354.6875,10898.375
49.06,10358.4375,10888.75
49.08,10359.8125,10882.4375
49.1,10356.75,10880.0625
49.120000000000005,10357.0625,10875.6875
49.14,10357.0,10876.9375
49.160000000000004,10352.1875,10884.3125
49.18,10345.0625,10894.9375
49.2,10341.125,10901.625
49.22,10341.375,10905.4375
49.24,10345.5,10893.375
49.26,10346.625,10890.5625
49.28,10345.0625,10888.8125
49.300000000000004,10339.4375,10889.625
49.32,10333.0625,10899.3125
49.34,10329.0,10909.625
49.36,10327.4375,10910.875
49.38,10330.1875,10898.3125
49.4,10335.9375,10884.6875
49.42,10342.5,10880.375
49.44,10349.9375,10878.0625
49.46,10356.875,10877.8125
49.480000000000004,10362.9375,10877.0
49.5,10360.25,10891.4375
49.52,10357.5625,10892.5
49.54,10357.8125,10888.5
49.56,10357.9375,10887.3125
49.58,10359.5625,10883.0625
49.6,10363.3125,10884.9375
49.620000000000005,10367.4375,10887.1875
49.64,10370.75,10883.4375
49.660000000000004,10373.375,10877.1875
49.68,10376.0625,10879.1875
49.7,10380.0625,10879.0
49.72,10384.0,10873.625
49.74,10387.1875,10859.875
49.76,10388.0,10845.125
49.78,10387.75,10837.625
49.800000000000004,10386.9375,10827.5
49.82,10388.1875,10813.3125
49.84,10390.5625,10800.5
49.86,10391.0,10781.875
49.88,10385.1875,10753.5
49.9,10377.125,10726.875
49.92,10373.3125,10720.3125
49.94,10374.5,10729.625
49.96,10374.625,10739.4375
49.980000000000004,10370.5,10733.625
50.0,10364.6875,10715.0
50.02,10356.5,10688.6875
50.04,10349.875,10669.625
50.06,10347.4375,10668.25
50.08,10347.8125,10674.125
50.1,10347.375,10676.6875
50.120000000000005,10346.1875,10675.375
50.14,10345.375,10675.0625
50.160000000000004,10339.75,10651.3125
50.18,10337.0625,10639.0625
50.2,10335.8125,10632.375
50.22,10337.3125,10631.375
50.24,10340.875,10635.3125
50.26,10343.5625,10635.6875
50.28,10339.6875,10621.625
50.300000000000004,10333.1875,10603.625
50.32,10332.125,10598.75
50.34,10336.5625,10608.625
50.36,10342.625,10624.375
50.38,10346.625,10634.1875
50.4,10347.875,10641.1875
50.42,10343.625,10628.25
50.44,10345.625,10631.6875
50.46,10341.75,10619.875
50.480000000000004,10339.125,10612.125
50.5,10337.3125,10608.75
50.52,10336.6875,10608.375
50.54,10337.4375,10611.0625
50.56,10337.0,10609.75
50.58,10335.1875,10608.1875
50.6,10336.8125,10613.9375
50.620000000000005,10341.75,10628.75
50.64,10347.0625,10643.9375
50.660000000000004,10348.5625,10652.625
50.68,10351.1875,10660.25
50.7,10352.3125,10663.4375
50.72,10354.625,10671.875
50.74,10357.5,10685.0
50.76,10359.375,10692.5
50.78,10359.875,10696.125
50.800000000000004,10359.3125,10699.375
50.82,10360.1875,10706.25
50.84,10362.9375,10723.0
50.86,10368.9375,10750.1875
50.88,10368.5625,10761.0625
50.9,10361.0625,10751.9375
50.92,10352.25,10755.6875
50.94,10346.625,10776.8125
50.96,10342.0,10798.8125
50.980000000000004,10335.3125,10828.75
51.0,10325.75,10826.5
51.02,10323.6875,10822.4375
51.04,10330.3125,10811.75
51.06,10337.1875,10806.9375
51.08,10340.6875,10808.3125
51.1,10344.8125,10794.4375
51.120000000000005,10351.0625,10769.625
51.14,10355.5,10751.5
51.160000000000004,10355.0625,10733.0625
51.18,10351.625,10716.9375
51.2,10350.25,10708.5625
51.22,10350.5,10707.9375
51.24,10346.6875,10705.0625
51.26,10344.75,10708.1875
51.28,10345.125,10720.0
51.300000000000004,10344.9375,10719.9375
51.32,10348.25,10729.3125
51.34,10351.125,10735.4375
51.36,10355.6875,10741.8125
51.38,10359.9375,10748.375
51.4,10362.8125,10760.125
51.42,10362.5,10772.5625
51.44,10360.8125,10791.9375
51.46,10358.125,10804.3125
51.480000000000004,10357.5,10822.9375
51.5,10355.8125,10826.625
51.52,10355.375,10827.125
51.54,10354.875,10816.6875
51.56,10354.0,10808.5
51.58,10353.0625,10812.375
51.6,10353.9375,10836.5
51.620000000000005,10360.75,10849.4375
51.64,10368.9375,10843.875
51.660000000000004,10371.8125,10835.6875
51.68,10371.5625,10823.375
51.7,10375.375,10804.8125
51.72,10386.1875,10778.875
51.74,10398.5625,10760.8125
51.76,10403.75,10756.0625
51.78,10405.375,10781.625
51.800000000000004,10404.625,10835.5625
51.82,10400.3125,10892.5625
51.84,10386.75,10943.9375
51.86,10369.6875,10980.125
51.88,10336.875,11022.5625
51.9,10281.75,11069.125
51.92,10236.0625,11100.0
51.94,10207.6875,11122.5
51.96,10170.4375,11147.9375
51.980000000000004,10134.8125,11168.125
52.0,10096.875,11190.0625
52.02,10068.4375,11209.375
52.04,10048.3125,11220.6875
52.06,10019.3125,11223.6875
52.08,9966.1875,11231.25
52.1,9921.625,11237.8125
52.120000000000005,9909.375,11237.625
52.14,9863.0,11233.5
52.160000000000004,9812.875,11224.375
52.18,9770.4375,11224.25
52.2,9753.9375,11233.8125
52.22,9727.0,11242.9375
52.24,9714.375,11247.5625
52.26,9752.375,11250.375
52.28,9788.375,11256.4375
52.300000000000004,9787.0625,11259.0625
52.32,9762.8125,11260.125
52.34,9736.8125,11260.75
52.36,9683.625,11256.75
52.38,9600.6875,11244.875
52.4,9555.5,11229.375
52.42,9571.8125,11216.8125
52.44,9603.875,11209.9375
52.46,9620.5,11206.6875
52.480000000000004,9641.5,11203.375
52.5,9662.5,11205.25
52.52,9656.6875,11212.9375
52.54,9644.4375,11218.25
52.56,9657.1875,11214.375
52.58,9687.125,11208.3125
52.6,9706.4375,11206.8125
52.620000000000005,9709.0625,11210.0625
52.64,9713.375,11211.125
52.660000000000004,9721.375,11212.75
52.68,9727.1875,11217.6875
52.7,9729.9375,11221.75
52.72,9729.0625,11225.125
52.74,9732.6875,11225.8125
52.76,9738.6875,11225.5625
52.78,9740.875,11226.8125
52.800000000000004,9734.125,11238.25
52.82,9729.3125,11243.9375
52.84,9720.9375,11249.6875
52.86,9719.1875,11250.75
52.88,9720.4375,11251.0625
52.9,9713.9375,11255.3125
52.92,9696.625,11261.125
52.94,9693.4375,11260.0
52.96,9704.5625,11255.5
52.980000000000004,9712.5,11254.5625
53.0,9710.0,11257.8125
53.02,9704.5,11259.4375
53.04,9703.25,11257.9375
53.06,9701.625,11256.125
53.08,9712.5625,11248.0625
53.1,9717.5,11246.5625
53.120000000000005,9733.5625,11242.1875
53.14,9744.5,11238.75
53.160000000000004,9745.3125,11239.4375
53.18,9738.75,11242.8125
53.2,9738.625,11244.5
53.22,9743.25,11243.375
53.24,9751.6875,11241.3125
53.26,9759.5625,11239.75
53.28,9765.75,11237.9375
53.300000000000004,9763.875,11239.6875
53.32,9757.25,11241.8125
53.34,9747.75,11245.3125
53.36,9742.6875,11247.6875
53.38,9737.875,11250.875
53.4,9734.3125,11253.625
53.42,9733.0,11254.6875
53.44,9731.75,11256.6875
53.46,9729.5,11258.0625
53.480000000000004,9726.9375,11260.125
53.5,9722.875,11261.75
53.52,9722.3125,11262.375
53.54,9721.0,11262.9375
53.56,9714.9375,11265.9375
53.58,9708.0625,11268.5625
53.6,9708.3125,11269.625
53.620000000000005,9706.4375,11270.875
53.64,9700.8125,11270.875
53.660000000000004,9694.9375,11275.4375
53.68,9699.0625,11274.75
53.7,9698.75,11280.125
53.72,9699.3125,11284.1875
53.74,9696.625,11285.9375
53.76,9691.5625,11286.125
53.78,9688.0625,11285.5625
53.800000000000004,9686.1875,11286.8125
53.82,9685.25,11288.0625
53.84,9694.3125,11284.75
53.86,9703.625,11282.9375
53.88,9704.4375,11284.6875
53.9,9697.8125,11287.8125
53.92,9691.75,11290.5625
53.94,9690.0625,11290.5625
53.96,9689.75,11291.9375
53.980000000000004,9694.125,11287.75
54.0,9693.9375,11288.125
54.02,9695.125,11287.625
54.04,9688.0625,11290.125
54.06,9677.8125,11292.3125
54.08,9670.0625,11293.4375
54.1,9666.6875,11292.4375
54.120000000000005,9666.8125,11291.3125
54.14,9668.0,11290.5625
54.160000000000004,9668.8125,11289.5
54.18,9667.875,11289.1875
54.2,9664.5625,11290.125
54.22,9656.125,11292.125
54.24,9650.0,11292.25
54.26,9650.875,11290.6875
54.28,9656.5,11288.0
54.300000000000004,9662.75,11285.625
54.32,9665.0625,11284.875
54.34,9663.8125,11284.375
54.36,9660.75,11284.625
54.38,9658.25,11284.5
54.4,9657.375,11283.875
54.42,9657.75,11282.125
54.44,9656.875,11281.25
54.46,9657.375,11281.0625
54.480000000000004,9656.375,11282.25
54.5,9655.75,11282.5625
54.52,9656.0625,11281.9375
54.54,9653.4375,11283.125
54.56,9649.25,11284.375
54.58,9645.5,11285.125
54.6,9644.8125,11284.0
54.620000000000005,9647.8125,11282.5625
54.64,9640.5,11283.9375
54.660000000000004,9641.4375,11282.25
54.68,9638.125,11285.5
54.7,9637.1875,11288.125
54.72,9634.3125,11290.0625
54.74,9634.5625,11289.125
54.76,9636.125,11287.0625
54.78,9637.375,11284.375
54.800000000000004,9632.5625,11285.125
54.82,9611.625,11285.6875
54.84,9554.375,11288.625
54.86,9460.8125,11293.875
54.88,9372.9375,11288.9375
54.9,9337.6875,11281.6875
54.92,9319.9375,11272.0
54.94,9315.5,11261.375
54.96,9321.1875,11254.75
54.980000000000004,9312.6875,11256.875
55.0,9315.9375,11259.9375
55.02,9325.6875,11258.5625
55.04,9353.0,11255.1875
55.06,9407.375,11243.1875
55.08,9477.375,11229.25
55.1,9542.875,11214.0625
55.120000000000005,9602.375,11198.6875
55.14,9651.1875,11181.125
55.160000000000004,9698.8125,11166.3125
55.18,9752.0,11150.9375
55.2,9822.8125,11146.4375
55.22,9924.5625,11164.875
55.24,10094.8125,11201.4375
55.26,10136.5625,11181.6875
55.28,10156.8125,11168.9375
55.300000000000004,10163.375,11150.9375
55.32,10164.625,11128.9375
55.34,10191.5625,11100.8125
55.36,10220.0,11068.375
55.38,10243.375,11032.0625
55.4,10272.625,10977.6875
55.42,10291.875,10918.25
55.44,10301.0625,10870.125
55.46,10311.6875,10833.5625
55.480000000000004,10329.9375,10791.25
55.5,10343.9375,10725.3125
55.52,10340.0,10652.3125
55.54,10332.125,10592.1875
55.56,10331.0625,10547.0625
55.58,10336.3125,10500.0625
55.6,10350.0,10475.4375
55.620000000000005,10389.5,10524.0625
55.64,10445.8125,10646.0
55.660000000000004,10485.4375,10963.625
55.68,10262.5,11212.1875
55.7,9937.4375,11273.3125
55.72,9894.6875,11233.4375
55.74,10021.0,11225.5
55.76,10027.75,11229.25
55.78,9749.625,11308.9375
55.800000000000004,9357.25,11390.375
55.82,9021.5625,11450.25
55.84,8855.5625,11489.4375
55.86,8780.1875,11499.5625
55.88,8748.9375,11532.875
55.9,8688.25,11490.9375
55.92,8625.375,11404.9375
55.94,8589.3125,11341.5
55.96,8566.625,11296.6875
55.980000000000004,8548.3125,11258.6875
56.0,8532.0,11222.6875
56.02,8515.3125,11187.8125
56.04,8501.1875,11157.5
56.06,8491.75,11134.1875
56.08,8484.3125,11114.5
56.1,8478.6875,11097.25
56.120000000000005,8474.1875,11082.6875
56.14,8471.25,11071.4375
56.160000000000004,8469.0,11061.625
56.18,8466.9375,11054.125
56.2,8465.9375,11047.875
56.22,8464.5625,11045.5
56.24,8464.0,11043.5625
56.26,8466.8125,11045.125
56.28,8468.8125,11046.1875
56.300000000000004,8468.875,11049.5
56.32,8470.8125,11055.1875
56.34,8474.5625,11064.875
56.36,8478.875,11074.875
56.38,8483.0625,11083.6875
56.4,8489.6875,11091.375
56.42,8493.1875,11088.6875
56.44,8494.75,11091.6875
56.46,8495.6875,11095.25
56.480000000000004,8500.0,11101.5625
56.5,8505.25,11105.1875
56.52,8508.5,11106.25
56.54,8510.5625,11105.25
56.56,8513.1875,11104.125
56.58,8515.25,11101.9375
56.6,8516.3125,11094.875
56.620000000000005,8518.0,11087.75
56.64,8519.5,11081.1875
56.660000000000004,8521.25,11075.0
56.68,8522.4375,11068.3125
56.7,8521.875,11060.5
56.72,8522.8125,11053.5625
56.74,8524.9375,11047.1875
56.76,8525.5,11040.125
56.78,8527.5625,11036.75
56.800000000000004,8530.625,11035.4375
56.82,8534.0,11034.8125
56.84,8537.3125,11035.3125
56.86,8540.4375,11036.1875
56.88,8542.125,11037.0625
56.9,8542.875,11038.6875
56.92,8540.875,11040.875
56.94,8531.3125,11041.3125
56.96,8515.625,11039.75
56.980000000000004,8501.875,11038.4375
57.0,8497.0625,11042.9375
57.02,8497.6875,11055.1875
57.04,8497.625,11065.5
57.06,8493.0625,11068.6875
57.08,8489.6875,11071.9375
57.1,8482.875,11070.8125
57.120000000000005,8457.4375,11050.3125
57.14,8415.5625,11006.875
57.160000000000004,8360.25,10941.125
57.18,8313.625,10883.9375
57.2,8271.5,10838.125
57.22,8208.625,10741.4375
57.24,8160.875,10641.0625
57.26,8087.0625,10459.125
57.28,8050.3125,10359.4375
57.300000000000004,8021.3125,10271.375
57.32,7995.5,10195.25
57.34,7984.0,10122.1875
57.36,8028.0625,10121.3125
57.38,8083.125,10119.375
57.4,8181.25,10187.375
57.42,8445.125,10450.9375
57.44,8573.8125,10543.9375
57.46,8618.375,10575.0625
57.480000000000004,8649.4375,10588.625
57.5,8681.25,10604.0
57.52,8713.125,10616.0
57.54,8734.75,10611.125
57.56,8769.4375,10617.875
57.58,8815.0,10638.0625
57.6,8840.9375,10648.25
57.620000000000005,8858.375,10647.5
57.64,8875.125,10640.5625
57.660000000000004,8894.25,10640.125
57.68,8912.625,10647.625
57.7,8930.1875,10653.25
57.72,8949.5,10650.0625
57.74,8967.5,10641.25
57.76,8999.0625,10652.0625
57.78,9029.4375,10659.875
57.800000000000004,9046.5,10662.375
57.82,9060.875,10663.0625
57.84,9078.1875,10660.1875
57.86,9092.0625,10656.125
57.88,9103.5625,10651.375
57.9,9114.6875,10647.25
57.92,9127.0625,10643.5625
57.94,9140.125,10641.6875
57.96,9159.625,10645.6875
57.980000000000004,9174.8125,10644.125
58.0,9184.25,10638.9375
58.02,9193.125,10636.3125
58.04,9202.8125,10634.5625
58.06,9213.25,10631.9375
58.08,9225.6875,10640.125
58.1,9256.75,10657.0
58.120000000000005,9273.0,10661.8125
58.14,9288.1875,10664.3125
58.160000000000004,9300.75,10666.4375
58.18,9310.375,10670.25
58.2,9319.125,10675.0625
58.22,9333.4375,10685.6875
58.24,9343.75,10690.0
58.26,9349.5,10692.3125
58.28,9355.625,10692.0
58.300000000000004,9359.25,10688.8125
58.32,9361.125,10692.125
58.34,9363.625,10688.4375
58.36,9365.3125,10691.8125
58.38,9367.625,10679.125
58.4,9371.6875,10671.3125
58.42,9376.375,10667.5
58.44,9379.5,10668.75
58.46,9381.625,10672.1875
58.480000000000004,9383.6875,10677.875
58.5,9385.625,10683.625
58.52,9387.5625,10683.5
58.54,9389.75,10679.1875
58.56,9392.1875,10679.0
58.58,9394.125,10681.6875
58.6,9395.3125,10682.75
58.620000000000005,9395.875,10683.875
58.64,9396.9375,10682.0625
58.660000000000004,9398.875,10681.25
58.68,9400.8125,10678.25
58.7,9403.0,10676.25
58.72,9404.875,10677.5
58.74,9406.0,10680.875
58.76,9406.625,10686.5625
58.78,9406.8125,10689.5
58.800000000000004,9406.75,10686.375
58.82,9407.125,10684.5625
58.84,9407.75,10684.375
58.86,9407.625,10686.1875
58.88,9407.8125,10689.375
58.9,9407.4375,10691.3125
58.92,9407.375,10691.5625
58.94,9408.1875,10690.75
58.96,9408.8125,10689.375
58.980000000000004,9409.3125,10689.625
59.0,9410.0625,10691.375
59.02,9410.375,10695.375
59.04,9411.25,10696.4375
59.06,9411.875,10695.5
59.08,9413.1875,10693.5
59.1,9414.4375,10692.8125
59.120000000000005,9415.6875,10694.375
59.14,9417.125,10695.6875
59.160000000000004,9417.75,10700.0625
59.18,9417.625,10708.1875
59.2,9417.25,10711.0
59.22,9416.375,10713.75
59.24,9416.6875,10714.25
59.26,9417.375,10712.4375
59.28,9418.8125,10714.625
59.300000000000004,9417.5,10713.125
59.32,9416.3125,10705.875
59.34,9415.0,10698.4375
59.36,9414.375,10697.0625
59.38,9413.875,10698.25
59.4,9412.75,10698.9375
59.42,9411.6875,10700.25
59.44,9411.5625,10702.75
59.46,9410.875,10706.125
59.480000000000004,9409.0625,10705.75
59.5,9405.5,10704.4375
59.52,9402.3125,10707.3125
59.54,9399.8125,10706.3125
59.56,9398.5,10703.5
59.58,9397.0625,10703.0625
59.6,9392.9375,10707.5
59.620000000000005,9387.4375,10716.875
59.64,9382.0625,10720.4375
59.660000000000004,9379.9375,10709.75
59.68,9378.6875,10697.3125
59.7,9375.5625,10695.25
59.72,9372.625,10698.625
59.74,9371.0,10697.4375
59.76,9371.3125,10691.4375
59.78,9372.8125,10684.9375
59.800000000000004,9373.4375,10688.5625
59.82,9372.625,10696.25
59.84,9373.75,10693.875
59.86,9377.3125,10688.4375
59.88,9380.1875,10687.0
59.9,9382.1875,10689.5625
59.92,9385.3125,10695.25
59.94,9388.3125,10702.9375
59.96,9391.375,10706.8125
59.980000000000004,9394.6875,10711.8125
60.0,9400.375,10716.0
60.02,9403.5625,10724.75
60.04,9399.375,10747.25
60.06,9390.3125,10771.125
60.08,9382.3125,10788.5625
60.1,9377.9375,10797.0
60.120000000000005,9373.25,10806.0
60.14,9360.0,10821.8125
60.160000000000004,9349.5625,10836.8125
60.18,9342.0625,10848.3125
60.2,9337.375,10859.6875
60.22,9336.8125,10865.25
60.24,9336.4375,10870.75
60.26,9335.0,10874.8125
60.28,9333.8125,10878.0625
60.300000000000004,9330.75,10884.9375
60.32,9327.0625,10888.6875
60.34,9325.0,10889.0625
60.36,9325.625,10888.6875
60.38,9324.8125,10891.625
60.4,9327.5,10888.4375
60.42,9336.8125,10874.4375
60.44,9349.125,10858.5625
60.46,9364.5625,10839.1875
60.480000000000004,9376.4375,10827.875
60.5,9386.9375,10813.9375
60.52,9395.875,10803.125
60.54,9405.8125,10792.375
60.56,9414.625,10777.75
60.58,9422.875,10762.125
60.6,9429.5625,10747.4375
60.620000000000005,9435.4375,10730.375
60.64,9440.6875,10713.6875
60.660000000000004,9447.75,10695.125
60.68,9456.5,10678.5625
60.7,9463.25,10668.25
60.72,9468.625,10665.25
60.74,9473.0625,10661.9375
60.76,9477.625,10656.9375
60.78,9483.25,10654.875
60.800000000000004,9487.6875,10652.0
60.82,9491.125,10650.375
60.84,9494.4375,10648.625
60.86,9497.6875,10646.6875
60.88,9501.25,10645.125
60.9,9503.6875,10650.5625
60.92,9505.125,10659.0625
60.94,9506.875,10662.125
60.96,9508.5,10657.6875
60.980000000000004,9511.0,10652.8125
61.0,9512.125,10654.1875
61.02,9513.4375,10659.625
61.04,9514.875,10665.0
61.06,9516.875,10663.8125
61.08,9519.25,10665.875
61.1,9522.3125,10656.5
61.120000000000005,9526.0,10660.625
61.14,9528.625,10654.1875
61.160000000000004,9532.375,10653.0625
61.18,9535.875,10655.875
61.2,9539.1875,10658.5625
61.22,9543.0625,10658.0
61.24,9547.3125,10657.3125
61.26,9551.25,10655.5
61.28,9557.375,10650.125
61.300000000000004,9565.0625,10643.5
61.32,9578.125,10648.1875
61.34,9584.125,10654.8125
61.36,9587.125,10661.4375
61.38,9589.875,10667.25
61.4,9594.875,10665.375
61.42,9600.0625,10663.25
61.44,9606.0,10664.5
61.46,9610.875,10669.8125
61.480000000000004,9613.3125,10677.4375
61.5,9615.0625,10682.25
61.52,9616.375,10685.375
61.54,9618.3125,10686.875
61.56,9621.4375,10689.4375
61.58,9624.125,10694.375
61.6,9626.875,10699.5
61.620000000000005,9630.0625,10705.625
61.64,9631.8125,10710.8125
61.660000000000004,9632.25,10714.1875
61.68,9634.5625,10714.6875
61.7,9637.125,10716.75
61.72,9640.1875,10722.4375
61.74,9642.25,10728.375
61.76,9646.0,10731.5
61.78,9649.25,10730.375
61.800000000000004,9653.125,10727.625
61.82,9656.75,10728.5
61.84,9658.4375,10734.8125
61.86,9659.3125,10741.8125
61.88,9659.5625,10744.875
61.9,9659.8125,10744.125
61.92,9660.4375,10740.5625
61.940000000000005,9660.875,10737.5625
61.96,9661.6875,10740.9375
61.980000000000004,9661.125,10748.9375
62.0,9660.8125,10753.5
62.02,9659.4375,10752.5
62.04,9658.375,10757.875
62.06,9658.5625,10762.3125
62.08,9660.1875,10768.5
62.1,9661.0,10772.0625
62.120000000000005,9662.5625,10773.875
62.14,9664.4375,10780.4375
62.160000000000004,9666.4375,10785.5
62.18,9668.9375,10786.375
62.2,9672.5,10784.9375
62.22,9676.5,10782.6875
62.24,9681.5,10780.125
62.26,9683.8125,10777.375
62.28,9684.3125,10777.4375
62.300000000000004,9685.375,10779.875
62.32,9686.4375,10787.5625
62.34,9688.5625,10788.5625
62.36,9692.0625,10784.1875
62.38,9697.5625,10780.6875
62.4,9702.875,10779.75
62.42,9701.6875,10789.3125
62.440000000000005,9699.9375,10799.1875
62.46,9698.9375,10799.4375
62.480000000000004,9699.375,10792.4375
62.5,9701.6875,10783.3125
62.52,9703.6875,10778.625
62.54,9704.5625,10779.375
62.56,9704.75,10783.8125
62.58,9703.8125,10788.3125
62.6,9704.6875,10789.8125
62.620000000000005,9706.125,10787.125
62.64,9708.875,10785.0
62.660000000000004,9710.125,10785.25
62.68,9709.875,10789.4375
62.7,9709.375,10795.0625
62.72,9709.125,10798.1875
62.74,9710.0625,10797.8125
62.76,9711.9375,10798.0625
62.78,9713.0625,10799.0
62.800000000000004,9713.875,10801.375
62.82,9714.3125,10806.3125
62.84,9714.5,10812.625
62.86,9714.5625,10817.9375
62.88,9714.4375,10821.4375
62.9,9713.0,10825.5625
62.92,9710.3125,10834.25
62.940000000000005,9709.375,10842.1875
62.96,9707.9375,10847.875
62.980000000000004,9704.9375,10850.5625
63.0,9699.9375,10857.75
63.02,9697.4375,10855.0
63.04,9696.3125,10852.25
63.06,9697.75,10849.0625
63.08,9700.4375,10847.1875
63.1,9702.5,10844.8125
63.120000000000005,9705.6875,10840.4375
63.14,9708.4375,10837.5
63.160000000000004,9712.25,10831.625
63.18,9718.0625,10826.75
63.2,9722.0,10825.75
63.22,9722.8125,10827.4375
63.24,9722.25,10826.3125
63.26,9720.9375,10824.125
63.28,9720.1875,10826.6875
63.300000000000004,9722.8125,10829.625
63.32,9724.5,10833.375
63.34,9728.3125,10835.5
63.36,9730.6875,10831.8125
63.38,9730.4375,10824.3125
63.4,9729.5,10812.875
63.42,9729.125,10802.9375
63.440000000000005,9730.8125,10794.6875
63.46,9734.5625,10787.9375
63.480000000000004,9739.5,10783.5
63.5,9746.25,10778.125
63.52,9757.0,10764.75
63.54,9769.375,10753.6875
63.56,9775.1875,10749.4375
63.58,9778.0625,10748.3125
63.6,9778.4375,10752.3125
63.620000000000005,9776.25,10764.875
63.64,9773.9375,10781.5
63.660000000000004,9773.375,10794.6875
63.68,9776.625,10803.625
63.7,9779.375,10807.1875
63.72,9776.375,10817.25
63.74,9770.8125,10827.6875
63.76,9770.4375,10831.6875
63.78,9769.4375,10843.875
63.800000000000004,9766.75,10850.875
63.82,9766.5,10850.375
63.84,9764.0625,10851.0
63.86,9760.625,10849.25
63.88,9759.875,10845.0625
63.9,9757.875,10843.9375
63.92,9755.75,10838.4375
63.940000000000005,9756.125,10829.3125
63.96,9755.625,10814.875
63.980000000000004,9754.5,10816.1875
64.0,9753.4375,10821.4375
64.02,9751.375,10833.0
64.04,9749.875,10838.0
64.06,9748.9375,10840.875
64.08,9747.875,10843.625
64.1,9745.0625,10848.6875
64.12,9743.0,10852.375
64.14,9741.0,10856.1875
64.16,9741.0,10857.0625
64.18,9741.9375,10856.125
64.2,9741.6875,10858.125
64.22,9741.0625,10861.0
64.24,9738.5,10871.75
64.26,9741.5,10871.4375
64.28,9745.0625,10876.875
64.3,9745.6875,10881.6875
64.32000000000001,9743.625,10884.6875
64.34,9739.5625,10892.0625
64.36,9734.8125,10899.25
64.38,9732.5625,10903.0
64.4,9732.0625,10905.9375
64.42,9730.0,10910.8125
64.44,9726.4375,10917.0
64.46000000000001,9723.6875,10919.8125
64.48,9722.1875,10921.25
64.5,9720.5625,10921.625
64.52,9719.0,10923.5
64.54,9717.0625,10927.25
64.56,9714.0625,10932.875
64.58,9710.5625,10937.6875
64.6,9708.4375,10940.125
64.62,9706.625,10941.0
64.64,9704.625,10944.0
64.66,9701.375,10949.0
64.68,9697.0,10953.75
64.7,9694.5,10956.0625
64.72,9691.625,10959.25
64.74,9689.625,10961.75
64.76,9688.625,10962.9375
64.78,9688.25,10962.625
64.8,9688.875,10963.4375
64.82000000000001,9684.25,10971.1875
64.84,9677.375,10977.9375
64.86,9668.0625,10988.0
64.88,9666.75,10987.0
64.9,9665.25,10988.6875
64.92,9664.25,10994.6875
64.94,9659.875,11000.875
64.96000000000001,9654.6875,11006.0
64.98,9650.9375,11009.6875
65.0,9647.25,11013.25
65.02,9647.75,11013.875
65.04,9651.625,11013.25
65.06,9653.125,11014.0
65.08,9653.75,11014.375
65.1,9654.3125,11014.0625
65.12,9655.9375,11011.75
65.14,9657.4375,11010.5625
65.16,9659.5625,11012.25
65.18,9661.0,11011.5625
65.2,9663.5,11012.3125
65.22,9668.125,11007.125
65.24,9673.375,11001.0
65.26,9675.5,10996.8125
65.28,9674.875,10995.8125
65.3,9673.5,10995.8125
65.32000000000001,9673.75,10994.0
65.34,9674.9375,10991.9375
65.36,9676.625,10989.625
65.38,9676.875,10989.875
65.4,9675.125,10992.0
65.42,9673.8125,10993.875
65.44,9674.0625,10994.3125
65.46000000000001,9675.1875,10994.0
65.48,9676.4375,10991.875
65.5,9677.0625,10991.0
65.52,9678.0625,10991.6875
65.54,9676.875,10995.0625
65.56,9676.25,10996.6875
65.58,9677.9375,10995.375
65.6,9683.0,10990.3125
65.62,9687.3125,10983.8125
65.64,9690.6875,10979.25
65.66,9694.5,10975.0
65.68,9700.6875,10968.0
65.7,9707.0625,10960.3125
65.72,9712.5625,10954.4375
65.74,9715.875,10950.75
65.76,9720.3125,10946.1875
65.78,9724.75,10942.5
65.8,9726.625,10939.1875
65.82000000000001,9729.25,10937.5
65.84,9733.5625,10930.3125
65.86,9736.9375,10928.25
65.88,9741.0625,10925.5625
65.9,9744.0625,10923.5
65.92,9745.75,10922.0625
65.94,9750.3125,10918.0
65.96000000000001,9755.0625,10915.4375
65.98,9760.3125,10912.3125
66.0,9766.625,10904.5
66.02,9771.3125,10897.75
66.04,9773.4375,10893.25
66.06,9775.3125,10888.3125
66.08,9778.0625,10881.25
66.1,9781.625,10874.25
66.12,9786.75,10866.4375
66.14,9787.9375,10864.0625
66.16,9786.5625,10865.3125
66.18,9784.8125,10859.125
66.2,9784.625,10851.9375
66.22,9784.3125,10846.1875
66.24,9782.0625,10845.125
66.26,9780.1875,10844.5625
66.28,9778.1875,10842.1875
66.3,9776.6875,10841.0625
66.32000000000001,9775.625,10838.875
66.34,9773.5625,10838.1875
66.36,9772.5,10836.5625
66.38,9770.9375,10834.75
66.4,9770.625,10831.75
66.42,9770.125,10831.0
66.44,9769.25,10828.1875
66.46000000000001,9769.6875,10821.75
66.48,9770.8125,10815.25
66.5,9770.3125,10810.0
66.52,9768.4375,10806.1875
66.54,9765.0625,10806.75
66.56,9761.1875,10808.8125
66.58,9759.3125,10808.8125
66.6,9758.6875,10809.875
66.62,9757.25,10809.875
66.64,9754.875,10814.25
66.66,9749.75,10823.625
66.68,9748.125,10823.1875
66.7,9743.5,10829.0625
66.72,9742.125,10823.75
66.74,9740.9375,10822.0
66.76,9740.75,10827.5625
66.78,9740.25,10832.3125
66.8,9739.5,10837.3125
66.82000000000001,9737.75,10845.25
66.84,9735.0625,10851.0625
66.86,9734.8125,10849.0625
66.88,9736.625,10845.5
66.9,9737.0625,10848.5625
66.92,9736.75,10852.75
66.94,9738.0,10853.5625
66.96000000000001,9738.9375,10853.375
66.98,9740.4375,10852.5
67.0,9742.5625,10848.5625
67.02,9744.75,10850.375
67.04,9745.4375,10853.125
67.06,9745.875,10856.125
67.08,9744.8125,10860.6875
67.1,9743.0625,10864.75
67.12,9742.5,10864.5
67.14,9742.9375,10861.8125
67.16,9743.125,10861.5
67.18,9742.625,10862.125
67.2,9741.5,10865.125
67.22,9740.6875,10869.4375
67.24,9740.375,10872.3125
67.26,9740.0625,10872.3125
67.28,9738.625,10872.0
67.3,9736.5625,10874.25
67.32000000000001,9736.3125,10875.875
67.34,9737.1875,10875.9375
67.36,9737.8125,10876.375
67.38,9737.875,10878.125
67.4,9737.5625,10881.0625
67.42,9736.5625,10883.5625
67.44,9735.75,10884.8125
67.46000000000001,9735.0625,10883.5
67.48,9735.5,10881.5625
67.5,9733.0625,10884.9375
67.52,9728.5625,10889.0
67.54,9724.5625,10896.8125
67.56,9721.6875,10891.5
67.58,9719.125,10893.0
67.6,9719.75,10892.0625
67.62,9720.1875,10893.875
67.64,9717.6875,10898.1875
67.66,9716.5,10903.0
67.68,9713.6875,10909.0625
67.7,9710.6875,10911.0625
67.72,9711.5,10908.75
67.74,9712.9375,10908.875
67.76,9712.5,10911.625
67.78,9711.0625,10914.5
67.8,9709.375,10917.625
67.82000000000001,9707.125,10921.375
67.84,9706.3125,10924.75
67.86,9705.0625,10924.8125
67.88,9700.375,10931.0625
67.9,9697.125,10932.5
67.92,9694.6875,10934.75
67.94,9693.5625,10936.9375
67.96000000000001,9691.3125,10938.8125
67.98,9688.625,10942.375
68.0,9685.3125,10946.1875
68.02,9681.8125,10948.8125
68.04,9680.3125,10948.75
68.06,9678.5625,10948.3125
68.08,9677.75,10949.6875
68.1,9675.9375,10952.0
68.12,9673.625,10955.5
68.14,9671.6875,10959.0625
68.16,9667.375,10965.125
68.18,9661.375,10972.3125
68.2,9655.875,10978.25
68.22,9652.625,10981.75
68.24,9649.5,10984.3125
68.26,9644.8125,10988.3125
68.28,9637.6875,10993.9375
68.3,9630.75,11001.25
68.32000000000001,9623.9375,11006.9375
68.34,9618.5,11011.0
68.36,9616.1875,11011.9375
68.38,9615.5625,11012.6875
68.4,9614.1875,11013.1875
68.42,9611.75,11014.4375
68.44,9607.5625,11018.5
68.46000000000001,9600.6875,11021.5
68.48,9588.75,11031.1875
68.5,9585.0625,11029.375
68.52,9584.125,11029.875
68.54,9586.75,11028.9375
68.56,9588.25,11027.3125
68.58,9587.125,11025.6875
68.60000000000001,9590.5,11020.8125
68.62,9596.0,11014.5625
68.64,9603.6875,11003.0
68.66,9613.0625,10991.9375
68.68,9615.25,10987.125
68.7,9614.375,10991.5
68.72,9618.0625,10993.5
68.74,9625.4375,10991.0
68.76,9634.25,10983.9375
68.78,9638.4375,10983.125
68.8,9633.625,10992.5625
68.82000000000001,9627.8125,11001.5625
68.84,9636.9375,10992.375
68.86,9654.125,10975.1875
68.88,9668.1875,10959.8125
68.9,9675.5625,10951.625
68.92,9678.875,10948.25
68.94,9679.25,10946.625
68.96000000000001,9677.1875,10945.875
68.98,9678.0,10944.8125
69.0,9683.0625,10938.9375
69.02,9694.3125,10923.625
69.04,9707.4375,10905.25
69.06,9718.625,10892.5
69.08,9727.4375,10883.625
69.10000000000001,9733.9375,10879.5625
69.12,9736.375,10880.625
69.14,9736.25,10881.625
69.16,9738.5625,10877.1875
69.18,9742.625,10871.0625
69.2,9746.9375,10867.5625
69.22,9749.375,10867.25
69.24,9751.1875,10867.75
69.26,9752.3125,10869.125
69.28,9750.125,10874.25
69.3,9746.6875,10879.375
69.32000000000001,9745.8125,10888.4375
69.34,9740.625,10906.9375
69.36,9736.5,10917.5
69.38,9726.9375,10935.6875
69.4,9714.25,10945.4375
69.42,9700.5,10960.25
69.44,9690.0,10968.75
69.46000000000001,9670.875,10983.375
69.48,9658.0625,10989.8125
69.5,9646.75,10998.375
69.52,9619.875,11019.3125
69.54,9590.0,11037.0625
69.56,9580.5,11041.5625
69.58,9582.75,11041.875
69.60000000000001,9588.1875,11037.6875
69.62,9597.3125,11028.3125
69.64,9598.0625,11024.375
69.66,9597.6875,11021.4375
69.68,9594.5,11020.9375
69.7,9599.3125,11010.1875
69.72,9598.6875,11003.6875
69.74,9596.25,11001.0625
69.76,9590.9375,11000.9375
69.78,9583.625,11003.125
69.8,9573.6875,11006.6875
69.82000000000001,9564.25,11008.4375
69.84,9558.125,11010.8125
69.86,9554.9375,11015.0625
69.88,9552.1875,11018.125
69.9,9548.5625,11021.4375
69.92,9541.4375,11025.25
69.94,9532.3125,11030.25
69.96000000000001,9521.125,11035.625
69.98,9513.0,11040.25
70.0,9503.875,11046.3125
70.02,9495.8125,11052.625
70.04,9494.25,11055.1875
70.06,9498.4375,11055.125
70.08,9495.8125,11060.125
70.10000000000001,9486.625,11069.0
70.12,9480.5,11074.125
70.14,9471.25,11080.125
70.16,9458.5625,11087.1875
70.18,9448.75,11093.3125
70.2,9449.125,11090.0625
70.22,9447.375,11092.875
70.24,9450.625,11090.25
70.26,9449.375,11090.375
70.28,9449.3125,11089.75
70.3,9447.125,11092.875
70.32000000000001,9444.0,11095.5625
70.34,9440.1875,11097.5625
70.36,9440.625,11097.875
70.38,9440.4375,11096.6875
70.4,9437.5,11098.3125
70.42,9430.375,11103.3125
70.44,9422.8125,11105.9375
70.46000000000001,9421.3125,11106.1875
70.48,9421.1875,11107.75
70.5,9425.8125,11104.75
70.52,9426.875,11104.625
70.54,9434.9375,11100.0
70.56,9442.125,11095.4375
70.58,9441.6875,11096.1875
70.60000000000001,9432.625,11097.4375
70.62,9427.0,11097.875
70.64,9424.3125,11096.0
70.66,9425.0625,11092.375
70.68,9430.125,11089.5625
70.7,9430.75,11088.4375
70.72,9430.3125,11089.375
70.74,9429.3125,11090.875
70.76,9428.5,11091.375
70.78,9429.5625,11090.9375
70.8,9431.1875,11090.0
70.82000000000001,9433.5625,11088.375
70.84,9433.5,11088.3125
70.86,9429.25,11090.0
70.88,9425.25,11091.4375
70.9,9424.5,11091.5
70.92,9424.0,11091.5625
70.94,9424.375,11091.1875
70.96000000000001,9425.0,11090.5625
70.98,9424.125,11089.875
71.0,9422.9375,11090.0625
71.02,9419.875,11092.5625
71.04,9415.5,11092.8125
71.06,9409.125,11096.0
71.08,9411.5625,11092.75
71.10000000000001,9412.1875,11093.0625
71.12,9414.3125,11093.4375
71.14,9412.4375,11095.9375
71.16,9409.8125,11098.3125
71.18,9406.3125,11100.4375
71.2,9401.0,11101.6875
71.22,9401.375,11101.5
71.24,9404.375,11100.0625
71.26,9405.375,11099.3125
71.28,9401.375,11101.6875
71.3,9394.375,11105.9375
71.32000000000001,9390.125,11107.5
71.34,9390.0625,11106.625
71.36,9390.75,11104.625
71.38,9373.25,11107.4375
71.4,9353.5,11111.0
71.42,9349.0625,11113.3125
71.44,9360.1875,11115.8125
71.46000000000001,9379.0625,11117.375
71.48,9391.8125,11119.5
71.5,9392.1875,11126.0625
71.52,9381.5625,11136.1875
71.54,9363.4375,11147.0
71.56,9347.9375,11154.3125
71.58,9342.0625,11155.75
71.60000000000001,9337.3125,11155.3125
71.62,9338.125,11156.9375
71.64,9337.9375,11159.375
71.66,9326.1875,11163.625
71.68,9295.4375,11170.5625
71.7,9271.0625,11171.4375
71.72,9276.3125,11166.125
71.74,9300.75,11155.75
71.76,9335.9375,11143.375
71.78,9348.5,11134.6875
71.8,9346.4375,11132.75
71.82000000000001,9353.0,11132.0625
71.84,9373.5,11123.375
71.86,9374.625,11122.4375
71.88,9365.25,11129.8125
71.9,9342.1875,11144.375
71.92,9302.375,11154.25
71.94,9270.8125,11152.5
71.96000000000001,9276.0,11139.25
71.98,9304.625,11129.125
72.0,9317.875,11129.125
72.02,9304.0,11140.5625
72.04,9263.375,11156.5625
72.06,9222.5625,11163.25
72.08,9186.625,11166.875
72.10000000000001,9173.375,11165.8125
72.12,9167.9375,11162.125
72.14,9165.125,11160.0
72.16,9152.625,11162.3125
72.18,9125.3125,11168.625
72.2,9083.4375,11179.0
72.22,9036.8125,11186.375
72.24,8995.9375,11193.0
72.26,8909.75,11210.8125
72.28,8803.875,11226.375
72.3,8723.4375,11234.6875
72.32000000000001,8677.75,11231.3125
72.34,8652.125,11224.125
72.36,8634.8125,11210.5
72.38,8619.25,11204.25
72.4,8604.875,11205.5625
72.42,8590.125,11215.3125
72.44,8575.1875,11223.375
72.46000000000001,8559.75,11219.0625
72.48,8545.9375,11208.375
72.5,8531.25,11187.1875
72.52,8515.8125,11155.9375
72.54,8497.625,11112.8125
72.56,8483.6875,11065.875
72.58,8468.6875,11020.0
72.60000000000001,8459.875,10990.375
72.62,8457.3125,10980.4375
72.64,8459.9375,10986.375
72.66,8468.875,11016.125
72.68,8477.75,11049.25
72.7,8481.125,11069.25
72.72,8478.9375,11070.75
72.74,8474.75,11063.0
72.76,8468.4375,11049.5
72.78,8460.4375,11029.5625
72.8,8453.25,11011.75
72.82000000000001,8447.3125,10997.25
72.84,8441.4375,10981.3125
72.86,8437.25,10970.3125
72.88,8434.0,10962.4375
72.9,8435.1875,10965.75
72.92,8438.25,10977.5625
72.94,8432.0625,10962.0
72.96000000000001,8433.0625,10964.875
72.98,8423.6875,10936.875
73.0,8423.875,10935.25
73.02,8423.5625,10933.1875
73.04,8429.375,10953.25
73.06,8433.9375,10975.1875
73.08,8434.0625,10987.0
73.10000000000001,8433.875,10997.6875
73.12,8433.9375,11006.8125
73.14,8431.875,11017.875
73.16,8425.625,11013.125
73.18,8420.3125,11009.1875
73.2,8416.125,11010.1875
73.22,8410.6875,11011.25
73.24,8402.875,10999.75
73.26,8397.1875,10994.75
73.28,8389.3125,10983.9375
73.3,8392.9375,10997.125
73.32000000000001,8396.5,11014.5625
73.34,8392.5,11015.5625
73.36,8389.1875,11014.375
73.38,8389.8125,11019.6875
73.4,8388.5625,11020.0625
73.42,8386.8125,11016.5625
73.44,8385.4375,11011.5625
73.46000000000001,8387.0,11019.4375
73.48,8383.375,11014.1875
73.5,8379.9375,11008.5
73.52,8377.1875,11008.6875
73.54,8374.0625,11003.6875
73.56,8367.875,10986.875
73.58,8361.4375,10971.125
73.60000000000001,8354.3125,10953.5625
73.62,8349.9375,10942.1875
73.64,8344.9375,10933.25
73.66,8336.8125,10915.0
73.68,8327.8125,10892.0625
73.7,8313.5,10852.5625
73.72,8294.375,10792.6875
73.74,8298.125,10763.625
73.76,8320.9375,10760.875
73.78,8329.25,10762.75
73.8,8327.625,10737.625
73.82000000000001,8332.625,10707.75
73.84,8363.875,10690.125
73.86,8441.875,10720.3125
73.88,8453.5625,10728.25
73.9,8465.3125,10733.5625
73.92,8466.8125,10751.0625
73.94,8458.0,10769.4375
73.96000000000001,8442.9375,10786.875
73.98,8428.8125,10797.375
74.0,8416.375,10803.8125
74.02,8403.25,10806.5
74.04,8390.3125,10796.625
74.06,8386.0,10778.125
74.08,8389.875,10759.3125
74.10000000000001,8396.5625,10752.6875
74.12,8404.625,10736.0625
74.14,8408.625,10729.0
74.16,8418.6875,10675.4375
74.18,8436.9375,10605.0625
74.2,8468.5625,10533.5
74.22,8526.5,10517.5625
74.24,8652.375,10581.3125
74.26,8737.4375,10624.625
74.28,8784.875,10651.625
74.3,8809.4375,10673.75
74.32000000000001,8827.875,10692.625
74.34,8843.75,10712.1875
74.36,8860.4375,10727.25
74.38,8879.8125,10744.875
74.4,8902.375,10762.75
74.42,8926.6875,10771.0625
74.44,8967.875,10764.875
74.46000000000001,9037.4375,10765.75
74.48,9117.375,10786.1875
74.5,9201.875,10853.125
74.52,9224.1875,10910.125
74.54,9211.0625,10967.875
74.56,9187.0,11009.5
74.58,9160.875,11038.375
74.60000000000001,9112.1875,11073.0
74.62,9089.375,11080.0625
74.64,9087.0,11079.875
74.66,9092.8125,11081.125
74.68,9092.8125,11079.125
74.7,9093.125,11077.25
74.72,9095.75,11081.125
74.74,9099.0625,11088.375
74.76,9112.3125,11090.25
74.78,9126.75,11085.375
74.8,9151.875,11073.0
74.82000000000001,9190.25,11051.875
74.84,9236.6875,11029.6875
74.86,9265.375,11024.625
74.88,9288.9375,11018.6875
74.9,9317.6875,11025.0625
74.92,9379.3125,11043.25
74.94,9446.875,11063.4375
74.96000000000001,9511.375,11074.5
74.98,9551.375,11076.6875
75.0,9582.375,11085.3125
75.02,9605.5,11094.9375
75.04,9621.375,11099.1875
75.06,9644.5625,11098.9375
75.08,9667.125,11105.9375
75.10000000000001,9697.5,11111.125
75.12,9715.0625,11109.75
75.14,9734.1875,11103.4375
75.16,9751.625,11104.9375
75.18,9771.1875,11108.5
75.2,9795.5,11110.5625
75.22,9828.75,11109.0625
75.24,9861.125,11116.0625
75.26,9896.25,11134.5
75.28,9934.125,11161.25
75.3,9970.9375,11187.9375
75.32000000000001,10015.125,11199.25
75.34,10067.0625,11209.25
75.36,10145.25,11251.875
75.38,10178.125,11261.25
75.4,10152.75,11272.0
75.42,10173.75,11267.1875
75.44,10176.1875,11269.25
75.46000000000001,10180.75,11269.375
75.48,10160.125,11273.9375
75.5,10147.8125,11274.6875
75.52,10152.5625,11271.6875
75.54,10158.4375,11270.375
75.56,10155.1875,11269.9375
75.58,10148.0625,11267.3125
75.60000000000001,10154.9375,11262.3125
75.62,10168.4375,11260.1875
75.64,10176.875,11263.625
75.66,10168.625,11274.125
75.68,10165.5625,11279.25
75.7,10152.625,11285.125
75.72,10169.0625,11284.0625
75.74,10178.1875,11283.8125
75.76,10184.6875,11284.3125
75.78,10177.25,11284.6875
75.8,10162.625,11286.0
75.82000000000001,10149.9375,11287.5
75.84,10138.0625,11289.3125
75.86,10130.9375,11293.375
75.88,10132.3125,11297.375
75.9,10132.3125,11298.6875
75.92,10133.4375,11297.0625
75.94,10127.75,11294.9375
75.96000000000001,10131.6875,11292.0625
75.98,10138.6875,11289.8125
76.0,10136.0,11290.5
76.02,10132.125,11292.375
76.04,10135.1875,11293.875
76.06,10142.6875,11290.3125
76.08,10147.8125,11284.6875
76.10000000000001,10150.375,11281.5
76.12,10156.125,11280.5
76.14,10159.875,11280.0
76.16,10146.8125,11282.0
76.18,10160.5,11274.6875
76.2,10161.25,11274.25
76.22,10179.25,11268.8125
76.24,10190.0,11265.0
76.26,10187.0625,11259.1875
76.28,10163.9375,11255.9375
76.3,10137.75,11252.9375
76.32000000000001,10114.6875,11249.875
76.34,10098.375,11246.3125
76.36,10081.25,11245.6875
76.38,10065.125,11245.0
76.4,10065.3125,11244.8125
76.42,10065.25,11245.75
76.44,10068.9375,11248.5
76.46000000000001,10073.6875,11253.6875
76.48,10070.4375,11259.6875
76.5,10047.625,11263.9375
76.52,10058.5,11259.625
76.54,10077.25,11252.5625
76.56,10093.4375,11245.375
76.58,10093.125,11240.75
76.60000000000001,10087.875,11240.3125
76.62,10090.25,11239.375
76.64,10100.375,11240.0625
76.66,10107.625,11242.0
76.68,10113.625,11245.6875
76.7,10111.1875,11249.6875
76.72,10102.4375,11253.0625
76.74,10086.9375,11257.6875
76.76,10066.625,11263.8125
76.78,10056.875,11269.25
76.8,10064.25,11269.9375
76.82000000000001,10071.25,11268.1875
76.84,10069.375,11267.125
76.86,10060.8125,11269.1875
76.88,10057.4375,11273.1875
76.9,10059.25,11274.625
76.92,10070.5,11273.5625
76.94,10088.0625,11271.375
76.96000000000001,10097.0625,11265.875
76.98,10094.4375,11261.6875
77.0,10089.1875,11256.375
77.02,10074.875,11252.875
77.04,10052.5,11256.1875
77.06,10056.0,11265.125
77.08,10057.5625,11280.9375
77.10000000000001,10051.8125,11291.5625
77.12,10058.8125,11292.8125
77.14,10064.625,11288.6875
77.16,10048.3125,11286.625
77.18,10017.0,11282.9375
77.2,9995.9375,11276.125
77.22,9995.5625,11269.875
77.24,10000.8125,11266.9375
77.26,9992.9375,11268.0
77.28,9973.0625,11271.75
77.3,9955.875,11274.625
77.32000000000001,9954.375,11274.1875
77.34,9946.5625,11271.9375
77.36,9931.5,11264.1875
77.38,9900.875,11257.8125
77.4,9880.3125,11253.25
77.42,9865.8125,11251.75
77.44,9861.75,11251.875
77.46000000000001,9865.375,11255.125
77.48,9861.6875,11262.9375
77.5,9840.0,11268.3125
77.52,9823.25,11269.5625
77.54,9817.5625,11268.6875
77.56,9812.8125,11266.0625
77.58,9804.75,11262.625
77.60000000000001,9810.625,11259.3125
77.62,9818.4375,11255.4375
77.64,9826.4375,11255.375
77.66,9840.25,11256.125
77.68,9856.0,11257.5
77.7,9875.0625,11258.625
77.72,9900.875,11260.4375
77.74,9923.3125,11259.9375
77.76,9945.3125,11258.625
77.78,9957.125,11258.5625
77.8,9969.3125,11258.875
77.82000000000001,9973.3125,11259.0
77.84,9973.125,11256.3125
77.86,9962.5,11255.375
77.88,9928.1875,11257.875
77.9,9928.8125,11257.75
77.92,9943.5,11254.375
77.94,9992.25,11241.4375
77.96000000000001,10025.0625,11238.3125
77.98,10064.875,11239.875
78.0,10076.375,11246.4375
78.02,10072.5,11252.9375
78.04,10062.75,11256.5625
78.06,10064.875,11256.8125
78.08,10072.1875,11251.0
78.10000000000001,10077.6875,11238.75
78.12,10086.6875,11229.375
78.14,10079.375,11228.75
78.16,10065.4375,11232.25
78.18,10044.625,11239.0
78.2,10037.125,11246.75
78.22,10014.125,11259.0
78.24,10036.5625,11266.0
78.26,10034.125,11274.5
78.28,10027.375,11280.125
78.3,10015.25,11289.0
78.32000000000001,9979.1875,11289.125
78.34,9926.0,11285.0
78.36,9887.75,11281.4375
78.38,9857.125,11275.1875
78.4,9842.0,11269.4375
78.42,9850.6875,11267.25
78.44,9880.4375,11274.5625
78.46000000000001,9898.625,11287.25
78.48,9906.5,11299.5625
78.5,9877.125,11309.875
78.52,9843.75,11312.3125
78.54,9810.0,11309.625
78.56,9785.8125,11306.3125
78.58,9769.5,11303.0625
78.60000000000001,9765.1875,11298.8125
78.62,9773.6875,11294.375
78.64,9782.5,11293.4375
78.66,9767.125,11293.875
78.68,9735.1875,11293.0
78.7,9729.375,11289.3125
78.72,9730.5,11286.6875
78.74,9747.875,11287.0
78.76,9766.625,11287.25
78.78,9775.375,11288.0
78.8,9761.0,11286.375
78.82000000000001,9735.25,11282.8125
78.84,9717.4375,11280.5625
78.86,9720.0625,11280.6875
78.88,9722.0,11283.0
78.9,9723.125,11284.6875
78.92,9715.125,11285.0
78.94,9701.0,11286.6875
78.96000000000001,9692.375,11286.875
78.98,9685.1875,11286.125
79.0,9673.25,11285.5
79.02,9644.4375,11286.5625
79.04,9634.125,11289.4375
79.06,9637.0625,11292.125
79.08,9648.1875,11295.125
79.10000000000001,9665.25,11297.8125
79.12,9678.375,11300.0
79.14,9685.1875,11303.5
79.16,9689.0,11309.5625
79.18,9688.875,11317.6875
79.2,9696.0,11323.125
79.22,9693.25,11325.75
79.24,9690.4375,11331.125
79.26,9694.75,11333.5
79.28,9723.9375,11327.875
79.3,9752.375,11318.0
79.32000000000001,9752.1875,11304.3125
79.34,9736.3125,11291.0
79.36,9720.4375,11280.75
79.38,9704.0,11277.0
79.4,9695.9375,11280.3125
79.42,9673.5,11284.4375
79.44,9625.3125,11285.8125
79.46000000000001,9619.4375,11285.0625
79.48,9640.625,11280.875
79.5,9654.625,11271.6875
79.52,9669.25,11264.0625
79.54,9642.0,11265.5625
79.56,9613.75,11256.5
79.58,9580.375,11247.875
79.60000000000001,9613.6875,11243.0
79.62,9648.6875,11243.8125
79.64,9674.75,11247.9375
79.66,9682.875,11248.25
79.68,9682.5625,11249.875
79.7,9673.0,11257.25
79.72,9659.125,11263.875
79.74,9652.625,11268.8125
79.76,9657.25,11275.125
79.78,9680.75,11280.9375
79.8,9712.75,11282.125
79.82000000000001,9763.875,11276.9375
79.84,9793.0625,11272.625
79.86,9826.4375,11276.8125
79.88,9846.375,11289.1875
79.9,9913.75,11299.6875
79.92,10018.0625,11309.9375
79.94,10089.875,11302.9375
79.96000000000001,10150.5625,11294.9375
79.98,10213.8125,11269.0
80.0,10262.9375,11226.1875
80.02,10321.9375,11166.8125
80.04,10290.5,11177.5
80.06,10244.5,11197.8125
80.08,10229.125,11191.625
80.10000000000001,10220.3125,11170.875
80.12,10216.5,11155.8125
80.14,10207.375,11158.3125
80.16,10251.0625,11128.3125
80.18,10297.5625,11087.9375
80.2,10304.625,11050.625
80.22,10269.5,11038.3125
80.24,10238.9375,11024.75
80.26,10231.5625,11011.0
80.28,10229.875,11008.25
80.3,10243.8125,10989.0625
80.32000000000001,10248.25,10997.375
80.34,10258.125,11007.3125
80.36,10256.4375,11029.0625
80.38,10237.9375,11051.0
80.4,10205.3125,11069.0
80.42,10174.0625,11088.6875
80.44,10157.4375,11097.6875
80.46000000000001,10151.9375,11093.25
80.48,10147.75,11083.4375
80.5,10133.0,11077.75
80.52,10115.3125,11076.875
80.54,10111.375,11074.125
80.56,10107.75,11078.625
80.58,10100.1875,11089.25
80.60000000000001,10075.0625,11106.4375
80.62,10085.0,11106.875
80.64,10086.5625,11109.6875
80.66,10090.8125,11111.5
80.68,10064.125,11122.375
80.7,10021.0,11137.8125
80.72,9986.5625,11150.9375
80.74,9957.875,11163.0625
80.76,9907.8125,11172.4375
80.78,9818.6875,11187.0625
80.8,9723.625,11202.8125
80.82000000000001,9669.4375,11209.25
80.84,9657.625,11211.375
80.86,9676.3125,11208.25
80.88,9728.25,11203.1875
80.9,9787.875,11195.375
80.92,9836.125,11184.0625
80.94,9838.375,11173.3125
80.96000000000001,9823.9375,11162.25
80.98,9821.0,11150.625
81.0,9823.1875,11140.1875
81.02,9815.125,11136.0
81.04,9792.75,11141.3125
81.06,9778.375,11147.5625
81.08,9767.875,11157.375
81.10000000000001,9783.0625,11157.625
81.12,9783.6875,11156.875
81.14,9768.625,11156.625
81.16,9750.125,11162.4375
81.18,9732.0625,11171.1875
81.2,9724.8125,11177.5
81.22,9724.9375,11177.8125
81.24,9727.4375,11178.3125
81.26,9739.3125,11176.375
81.28,9748.9375,11172.1875
81.3,9762.9375,11161.9375
81.32000000000001,9780.75,11152.625
81.34,9792.125,11144.9375
81.36,9825.625,11133.125
81.38,9851.5,11127.75
81.4,9869.5,11127.9375
81.42,9868.3125,11130.5625
81.44,9860.8125,11133.0
81.46000000000001,9858.0625,11136.9375
81.48,9855.875,11140.25
81.5,9847.0625,11138.5625
81.52,9823.0,11138.25
81.54,9787.5,11141.0625
81.56,9760.125,11149.25
81.58,9742.0,11159.0
81.60000000000001,9738.0625,11162.625
81.62,9753.0,11158.3125
81.64,9760.5,11157.9375
81.66,9751.5,11160.25
81.68,9727.125,11162.625
81.7,9697.1875,11161.875
81.72,9680.3125,11159.25
81.74,9670.1875,11160.5
81.76,9661.25,11166.0625
81.78,9659.4375,11176.4375
81.8,9644.875,11188.25
81.82000000000001,9618.4375,11198.625
81.84,9573.75,11215.25
81.86,9519.4375,11227.4375
81.88,9465.8125,11235.875
81.9,9426.75,11236.9375
81.92,9393.5,11234.5
81.94,9366.1875,11231.875
81.96000000000001,9348.875,11225.9375
81.98,9336.125,11216.0625
82.0,9329.6875,11204.75
82.02,9323.375,11197.0
82.04,9308.9375,11192.25
82.06,9303.3125,11184.125
82.08,9310.75,11170.3125
82.10000000000001,9343.375,11152.125
82.12,9413.4375,11125.4375
82.14,9482.375,11096.3125
82.16,9555.75,11050.125
82.18,9596.0,11035.5
82.2,9626.4375,11006.75
82.22,9694.0,10947.875
82.24,9785.375,10887.3125
82.26,9987.625,10930.1875
82.28,10082.125,10951.9375
82.3,10165.4375,10951.25
82.32000000000001,10229.9375,10950.375
82.34,10257.5,10984.75
82.36,10193.5,11046.875
82.38,10063.0,11069.0
82.4,9949.125,11048.3125
82.42,9869.75,11001.125
82.44,9879.875,10957.625
82.46000000000001,9901.3125,10929.3125
82.48,9890.5625,10915.0625
82.5,9870.5625,10917.4375
82.52,9883.1875,10915.625
82.54,9918.8125,10906.1875
82.56,9950.125,10897.5625
82.58,9956.1875,10894.125
82.60000000000001,9956.875,10888.9375
82.62,9920.0625,10904.5
82.64,9887.0625,10919.625
82.66,9890.3125,10921.875
82.68,9948.0,10920.4375
82.7,10000.5,10934.6875
82.72,10014.4375,10958.4375
82.74,10010.3125,10974.0
82.76,10016.125,10973.1875
82.78,10043.3125,10957.875
82.8,10064.75,10939.875
82.82000000000001,10072.0625,10927.125
82.84,10071.4375,10919.625
82.86,10086.8125,10901.25
82.88,10110.875,10869.0
82.9,10130.75,10838.375
82.92,10130.375,10822.5
82.94,10110.9375,10829.9375
82.96000000000001,10092.8125,10844.625
82.98,10086.125,10854.8125
83.0,10089.0625,10855.5625
83.02,10093.4375,10846.125
83.04,10106.75,10825.5625
83.06,10126.875,10795.625
83.08,10140.125,10772.5625
83.10000000000001,10137.25,10774.4375
83.12,10131.1875,10784.25
83.14,10123.125,10794.9375
83.16,10119.8125,10798.5625
83.18,10127.9375,10796.8125
83.2,10135.9375,10792.25
83.22,10129.9375,10789.125
83.24,10103.4375,10799.75
83.26,10084.0,10798.4375
83.28,10087.0,10772.625
83.3,10088.3125,10754.3125
83.32000000000001,10081.3125,10748.0
83.34,10066.0625,10739.9375
83.36,10044.3125,10722.75
83.38,10026.0,10705.625
83.4,10023.3125,10708.375
83.42,10019.625,10710.75
83.44,10029.0,10700.5625
83.46000000000001,10041.25,10697.125
83.48,10038.3125,10701.0625
83.5,10015.5,10706.25
83.52,10001.3125,10692.25
83.54,10006.1875,10658.4375
83.56,10012.75,10610.875
83.58,10009.875,10569.875
83.60000000000001,10006.625,10542.4375
83.62,9995.375,10533.25
83.64,9976.5,10540.1875
83.66,9958.8125,10556.8125
83.68,9948.9375,10561.75
83.7,9945.125,10554.875
83.72,9939.3125,10559.5625
83.74,9932.6875,10573.875
83.76,9929.4375,10575.4375
83.78,9927.9375,10561.5625
83.8,9924.9375,10534.5
83.82000000000001,9921.8125,10519.8125
83.84,9918.6875,10529.1875
83.86,9913.875,10544.9375
83.88,9908.125,10542.75
83.9,9911.1875,10520.5625
83.92,9909.5625,10497.875
83.94,9893.75,10496.6875
83.96000000000001,9873.875,10503.875
83.98,9863.75,10505.125
84.0,9862.625,10498.5
84.02,9857.0,10499.875
84.04,9842.5,10506.125
84.06,9828.8125,10505.5625
84.08,9814.5625,10498.875
84.10000000000001,9809.5625,10481.75
84.12,9802.375,10473.5625
84.14,9791.6875,10478.5625
84.16,9778.4375,10493.9375
84.18,9772.625,10502.4375
84.2,9763.5,10504.1875
84.22,9760.375,10486.75
84.24,9775.0,10455.875
84.26,9793.25,10432.125
84.28,9793.125,10433.3125
84.3,9783.5625,10454.625
84.32000000000001,9798.5625,10475.0
84.34,9860.8125,10468.125
84.36,9943.0,10480.6875
84.38,10013.6875,10526.0
84.4,10072.1875,10568.5625
84.42,10122.1875,10611.0
84.44,10150.0625,10649.5
84.46000000000001,10167.0625,10703.6875
84.48,10180.5,10773.25
84.5,10176.125,10837.5
84.52,10154.625,10897.5
84.54,10116.5625,10942.0
84.56,10062.0,10978.4375
84.58,10004.25,11002.1875
84.60000000000001,9929.375,11016.75
84.62,9821.4375,11036.1875
84.64,9717.1875,11055.125
84.66,9679.3125,11065.5625
84.68,9669.5,11074.0625
84.7,9678.625,11085.5
84.72,9685.0,11099.75
84.74,9694.125,11112.75
84.76,9711.8125,11123.125
84.78,9699.125,11136.4375
84.8,9649.5,11148.25
84.82000000000001,9606.1875,11150.875
84.84,9514.6875,11159.9375
84.86,9462.625,11154.375
84.88,9425.6875,11142.9375
84.9,9435.625,11124.75
84.92,9462.9375,11106.375
84.94,9486.6875,11089.0625
84.96000000000001,9507.5625,11074.875
84.98,9511.75,11065.875
85.0,9500.6875,11062.4375
85.02,9491.625,11060.3125
85.04,9490.5,11053.625
85.06,9490.4375,11050.25
85.08,9480.0625,11050.1875
85.10000000000001,9456.0,11048.375
85.12,9440.0625,11038.3125
85.14,9443.875,11017.8125
85.16,9445.875,11002.875
85.18,9458.75,10985.6875
85.2,9474.4375,10968.375
85.22,9487.3125,10959.25
85.24,9477.875,10965.6875
85.26,9467.4375,10973.25
85.28,9460.375,10972.375
85.3,9451.8125,10972.125
85.32000000000001,9451.875,10971.75
85.34,9460.125,10966.5625
85.36,9459.125,10965.0625
85.38,9449.0,10969.1875
85.4,9422.8125,10980.625
85.42,9407.25,10984.375
85.44,9397.9375,10986.5625
85.46000000000001,9392.5625,10986.5625
85.48,9393.1875,10985.1875
85.5,9392.5625,10982.5
85.52,9392.0625,10982.5
85.54,9375.5,10991.0625
85.56,9371.5,10987.8125
85.58,9379.625,10983.3125
85.60000000000001,9394.75,10976.3125
85.62,9397.9375,10978.4375
85.64,9395.5625,10979.375
85.66,9392.0,10982.625
85.68,9393.75,10984.8125
85.7,9387.75,10989.3125
85.72,9375.5625,10995.0
85.74,9364.3125,11002.3125
85.76,9371.375,11003.8125
85.78,9394.0,11002.1875
85.8,9422.25,11001.625
85.82000000000001,9436.0,11005.4375
85.84,9442.5625,11013.1875
85.86,9454.5625,11023.25
85.88,9465.1875,11033.9375
85.9,9464.375,11044.75
85.92,9465.5,11051.1875
85.94,9482.4375,11053.1875
85.96000000000001,9514.6875,11049.125
85.98,9549.125,11042.4375
86.0,9590.625,11031.75
86.02,9630.125,11032.0625
86.04,9659.5,11030.9375
86.06,9687.0,11026.625
86.08,9727.3125,11034.8125
86.10000000000001,9771.25,11046.0
86.12,9816.0625,11062.0
86.14,9845.6875,11062.9375
86.16,9871.6875,11057.0
86.18,9907.0625,11050.625
86.2,9929.0625,11043.1875
86.22,9955.6875,11031.875
86.24,9986.125,11016.5625
86.26,10031.25,10986.0
86.28,10076.125,10949.5
86.3,10116.5,10890.25
86.32000000000001,10127.4375,10845.0
86.34,10121.25,10834.5625
86.36,10107.8125,10846.6875
86.38,10102.0,10842.4375
86.4,10098.8125,10820.75
86.42,10096.0,10799.375
86.44,10096.4375,10784.75
86.46000000000001,10089.8125,10765.625
86.48,10078.8125,10743.5625
86.5,10072.3125,10742.5625
86.52,10065.6875,10759.5
86.54,10059.3125,10766.0
86.56,10053.75,10756.875
86.58,10051.1875,10741.9375
86.60000000000001,10049.9375,10733.875
86.62,10044.5,10734.875
86.64,10037.125,10739.1875
86.66,10029.5,10749.875
86.68,10019.9375,10768.625
86.7,10012.3125,10783.8125
86.72,9995.5,10816.1875
86.74,9975.9375,10843.3125
86.76,9948.375,10865.875
86.78,9928.6875,10880.75
86.8,9903.625,10898.9375
86.82000000000001,9883.6875,10909.5625
86.84,9859.8125,10931.1875
86.86,9838.875,10955.1875
86.88,9801.5,10981.6875
86.9,9795.25,10994.875
86.92,9756.875,11009.9375
86.94,9753.0625,11017.8125
86.96000000000001,9732.25,11037.0
86.98,9730.1875,11050.0625
87.0,9728.5,11050.3125
87.02,9714.6875,11046.875
87.04,9685.125,11054.0625
87.06,9664.1875,11062.6875
87.08,9655.5,11063.9375
87.10000000000001,9655.0625,11054.5
87.12,9658.0625,11044.625
87.14,9662.375,11038.1875
87.16,9654.75,11037.0
87.18,9629.0,11050.0625
87.2,9596.4375,11062.0
87.22,9570.0,11061.3125
87.24,9535.0625,11057.1875
87.26,9521.4375,11047.625
87.28,9528.4375,11040.1875
87.3,9537.25,11030.3125
87.32000000000001,9540.1875,11023.375
87.34,9550.4375,11007.5625
87.36,9572.5,11001.9375
87.38,9590.5,11003.0625
87.4,9567.9375,11008.375
87.42,9509.375,11008.3125
87.44,9478.6875,10993.4375
87.46000000000001,9485.5625,10967.75
87.48,9508.6875,10936.8125
87.5,9541.125,10908.125
87.52,9598.25,10872.0
87.54,9651.4375,10849.5625
87.56,9715.5,10825.875
87.58,9694.75,10804.0
87.60000000000001,9651.3125,10789.5625
87.62,9629.5,10766.6875
87.64,9623.625,10736.625
87.66,9608.125,10724.3125
87.68,9590.1875,10723.6875
87.7,9582.75,10715.875
87.72,9584.875,10703.75
87.74,9590.375,10694.125
87.76,9587.25,10687.5625
87.78,9572.0625,10682.75
87.8,9565.375,10677.9375
87.82000000000001,9567.875,10680.25
87.84,9569.3125,10692.1875
87.86,9562.5625,10708.0625
87.88,9548.5,10715.5
87.9,9552.3125,10710.3125
87.92,9560.0,10698.625
87.94,9581.8125,10676.75
87.96000000000001,9595.9375,10659.1875
87.98,9594.375,10643.1875
88.0,9589.25,10635.0625
88.02,9578.5,10632.9375
88.04,9573.125,10624.375
88.06,9572.3125,10605.5
88.08,9567.625,10586.9375
88.10000000000001,9561.75,10571.875
88.12,9562.0,10561.6875
88.14,9566.75,10543.9375
88.16,9566.0625,10525.875
88.18,9563.5625,10507.5625
88.2,9563.6875,10491.0
88.22,9563.9375,10476.375
88.24,9556.6875,10465.1875
88.26,9547.75,10456.1875
88.28,9539.9375,10442.3125
88.3,9535.125,10424.1875
88.32000000000001,9532.3125,10414.5
88.34,9533.4375,10410.25
88.36,9523.8125,10422.3125
88.38,9516.3125,10409.875
88.4,9513.875,10385.125
88.42,9516.125,10344.8125
88.44,9500.125,10324.9375
88.46000000000001,9474.625,10329.4375
88.48,9455.125,10347.75
88.5,9452.375,10362.5
88.52,9465.25,10373.1875
88.54,9474.1875,10401.4375
88.56,9478.625,10465.125
88.58,9464.375,10541.4375
88.60000000000001,9451.25,10605.0
88.62,9462.9375,10652.5625
88.64,9492.6875,10677.5
88.66,9532.0625,10677.875
88.68,9580.25,10669.8125
88.7,9635.875,10667.375
88.72,9672.625,10669.0625
88.74,9683.375,10668.125
88.76,9687.3125,10662.875
88.78,9695.3125,10668.4375
88.8,9701.125,10679.125
88.82000000000001,9709.625,10689.1875
88.84,9729.3125,10696.875
88.86,9747.625,10703.0625
88.88,9755.625,10707.75
88.9,9750.3125,10715.1875
88.92,9747.3125,10712.125
