0.0,52.0,34.8125
0.02,51.875,34.9375
0.04,51.9375,35.125
0.06,52.25,35.125
0.08,52.0,35.5
0.1,52.1875,35.6875
0.12,52.1875,36.0
0.14,52.75,36.125
0.16,52.5625,36.625
0.18,52.75,36.9375
0.2,52.125,37.25
0.22,52.8125,37.625
0.24,52.875,39.125
0.26,53.3125,39.5625
0.28,53.8125,41.5
0.3,54.4375,42.8125
0.32,54.875,44.375
0.34,55.875,46.0
0.36,56.75,48.125
0.38,57.75,50.4375
0.4,58.625,52.25
0.42,59.875,54.4375
0.44,60.9375,56.8125
0.46,61.625,58.875
0.48,63.0,61.4375
0.5,64.3125,64.5
0.52,65.375,67.625
0.54,66.3125,69.0
0.56,67.3125,70.0625
0.58,68.125,71.0
0.6,69.0625,73.0
0.62,69.875,75.0
0.64,70.875,76.9375
0.66,72.0625,79.0
0.68,73.3125,80.8125
0.7000000000000001,74.25,82.5
0.72,76.3125,85.5625
0.74,79.625,90.4375
0.76,84.1875,96.5625
0.78,89.1875,102.3125
0.8,96.5,111.0625
0.8200000000000001,103.3125,118.6875
0.84,106.625,121.75
0.86,107.3125,121.6875
0.88,109.4375,123.8125
0.9,109.125,123.375
0.92,107.3125,120.625
0.9400000000000001,104.875,117.125
0.96,102.1875,113.0625
0.98,100.4375,110.8125
1.0,99.375,108.875
1.02,100.3125,109.9375
1.04,102.9375,112.4375
1.06,105.5,114.875
1.08,106.875,117.125
1.1,107.9375,119.0
1.12,107.9375,118.75
1.1400000000000001,105.3125,116.5625
1.16,101.8125,113.375
1.18,99.9375,112.0
1.2,98.875,110.8125
1.22,98.5625,110.5625
1.24,97.6875,109.0
1.26,97.0,108.3125
1.28,99.0,110.5
1.3,104.25,115.1875
1.32,109.8125,121.4375
1.34,117.625,129.8125
1.36,125.1875,138.375
1.3800000000000001,130.875,144.9375
1.4000000000000001,134.25,149.5
1.42,137.625,153.4375
1.44,139.4375,155.4375
1.46,139.4375,155.9375
1.48,142.25,158.6875
1.5,149.75,166.0625
1.52,161.0625,179.5625
1.54,171.625,193.375
1.56,179.125,207.875
1.58,183.0,224.0625
1.6,188.375,236.125
1.62,198.875,252.3125
1.6400000000000001,212.5,275.0
1.6600000000000001,233.0,306.25
1.68,264.9375,351.125
1.7,310.125,407.0625
1.72,353.0,457.25
1.74,388.375,494.625
1.76,406.375,508.75
1.78,423.5,522.375
1.8,440.5625,536.0
1.82,452.5625,544.5625
1.84,476.8125,566.8125
1.86,526.375,618.75
1.8800000000000001,602.125,703.5
1.9000000000000001,697.4375,811.5
1.92,825.9375,955.0
1.94,1004.6875,1147.6875
1.96,1256.375,1408.375
1.98,1586.25,1747.0625
2.0,1956.75,2111.8125
2.02,2334.5625,2465.875
2.04,2683.0,2768.9375
2.06,3086.5625,3102.0625
2.08,3402.9375,3370.0625
2.1,3750.1875,3656.25
2.12,4106.0625,3944.0625
2.14,4386.75,4173.375
2.16,4656.6875,4390.8125
2.18,4969.625,4682.5
2.2,5397.1875,5107.9375
2.22,6147.3125,5880.6875
2.24,7003.1875,6858.625
2.2600000000000002,7395.5,7417.0625
2.2800000000000002,7609.5,7770.75
2.3000000000000003,7780.5,8123.4375
2.32,7984.3125,8658.3125
2.34,8108.4375,9066.3125
2.36,8158.3125,9236.9375
2.38,8195.1875,9424.1875
2.4,8206.125,9688.5625
2.42,8144.625,9882.3125
2.44,8099.5,9902.125
2.46,8121.3125,9771.5
2.48,8150.25,9783.75
2.5,8182.5,9830.0625
2.52,8218.125,9899.375
2.54,8124.6875,10162.75
2.56,7931.625,10383.5
2.58,7861.625,10486.375
2.6,7828.75,10489.75
2.62,7810.125,10490.25
2.64,7799.875,10485.8125
2.66,7790.8125,10479.4375
2.68,7780.625,10471.125
2.7,7770.375,10463.125
2.72,7757.875,10452.625
2.74,7752.0,10446.125
2.7600000000000002,7746.0,10438.6875
2.7800000000000002,7735.0625,10426.0
2.8000000000000003,7725.125,10413.9375
2.82,7717.6875,10404.3125
2.84,7712.75,10395.0
2.86,7711.0,10388.25
2.88,7707.9375,10380.0625
2.9,7703.5625,10372.0625
2.92,7697.6875,10362.5625
2.94,7693.3125,10354.25
2.96,7689.125,10346.75
2.98,7683.5,10337.8125
3.0,7679.25,10331.25
3.02,7677.125,10325.25
3.04,7673.0625,10316.5
3.06,7667.9375,10306.8125
3.08,7663.125,10297.5
3.1,7655.375,10286.8125
3.12,7644.125,10271.875
3.14,7630.9375,10255.25
3.16,7617.75,10235.75
3.18,7608.875,10221.8125
3.2,7600.4375,10208.75
3.22,7593.3125,10196.75
3.24,7587.125,10185.9375
3.2600000000000002,7581.125,10173.125
3.2800000000000002,7575.25,10159.9375
3.3000000000000003,7568.375,10144.9375
3.3200000000000003,7563.5,10131.75
3.34,7559.0625,10119.4375
3.36,7554.875,10109.0625
3.38,7550.8125,10096.9375
3.4,7547.3125,10085.6875
3.42,7545.0625,10077.5
3.44,7544.5,10071.9375
3.46,7543.8125,10067.75
3.48,7543.75,10064.0625
3.5,7544.25,10061.0625
3.52,7544.4375,10058.0
3.54,7544.5625,10055.125
3.56,7545.0,10052.0625
3.58,7544.6875,10047.6875
3.6,7544.875,10044.25
3.62,7544.875,10040.0625
3.64,7543.25,10035.5625
3.66,7541.5,10030.8125
3.68,7540.3125,10026.3125
3.7,7535.0,10013.6875
3.72,7533.875,10009.8125
3.74,7534.4375,10008.875
3.7600000000000002,7535.8125,10007.9375
3.7800000000000002,7535.125,10004.375
3.8000000000000003,7534.5625,10001.1875
3.8200000000000003,7535.0625,10001.1875
3.84,7537.5,10004.4375
3.86,7539.0,10005.625
3.88,7540.5,10005.625
3.9,7541.625,10004.375
3.92,7542.875,10005.625
3.94,7545.3125,10008.25
3.96,7547.8125,10011.625
3.98,7550.0625,10015.5
4.0,7553.8125,10022.0
4.0200000000000005,7557.5,10029.875
4.04,7560.5,10037.5
4.0600000000000005,7567.125,10052.125
4.08,7570.9375,10055.375
4.1,7574.25,10059.375
4.12,7577.75,10064.375
4.14,7580.4375,10068.875
4.16,7582.625,10071.8125
4.18,7583.4375,10070.625
4.2,7581.1875,10061.8125
4.22,7579.1875,10056.0
4.24,7577.6875,10051.1875
4.26,7577.1875,10048.5625
4.28,7576.625,10046.3125
4.3,7576.625,10044.8125
4.32,7577.9375,10045.1875
4.34,7578.75,10045.125
4.36,7578.9375,10044.0625
4.38,7579.25,10044.125
4.4,7579.875,10043.75
4.42,7580.5,10043.8125
4.44,7581.5,10045.125
4.46,7581.375,10043.625
4.48,7581.875,10042.5625
4.5,7582.0625,10041.25
4.5200000000000005,7582.75,10040.6875
4.54,7582.625,10039.125
4.5600000000000005,7582.4375,10037.1875
4.58,7581.4375,10033.9375
4.6000000000000005,7581.0,10031.25
4.62,7580.75,10029.625
4.64,7581.25,10028.1875
4.66,7580.9375,10025.6875
4.68,7580.8125,10023.8125
4.7,7580.4375,10020.3125
4.72,7580.0,10016.875
4.74,7579.1875,10013.375
4.76,7578.25,10010.9375
4.78,7577.25,10008.25
4.8,7574.75,10005.5625
4.82,7572.25,10003.75
4.84,7571.6875,10002.625
4.86,7572.25,10001.4375
4.88,7573.3125,10000.5625
4.9,7574.625,10000.375
4.92,7576.125,10001.0
4.94,7577.0625,10000.625
4.96,7577.625,9999.5
4.98,7578.4375,9998.5625
5.0,7579.0625,9997.5625
5.0200000000000005,7579.5625,9996.0
5.04,7580.6875,9995.6875
5.0600000000000005,7581.9375,9994.5
5.08,7584.625,9994.375
5.1000000000000005,7586.8125,9992.625
5.12,7587.875,9990.5625
5.14,7590.0625,9989.6875
5.16,7590.75,9986.875
5.18,7589.125,9981.6875
5.2,7589.4375,9977.8125
5.22,7589.6875,9974.8125
5.24,7589.375,9971.375
5.26,7590.0625,9970.0625
5.28,7591.25,9970.375
5.3,7591.5625,9968.6875
5.32,7591.125,9966.375
5.34,7592.0625,9966.4375
5.36,7593.375,9967.125
5.38,7594.5625,9968.375
5.4,7597.0,9970.4375
5.42,7599.375,9972.9375
5.44,7600.9375,9973.8125
5.46,7601.9375,9973.3125
5.48,7602.75,9973.5
5.5,7604.0625,9974.1875
5.5200000000000005,7605.75,9975.75
5.54,7608.25,9978.0
5.5600000000000005,7610.875,9981.0
5.58,7613.8125,9984.625
5.6000000000000005,7617.125,9988.375
5.62,7618.1875,9989.125
5.64,7620.0,9990.0625
5.66,7622.125,9992.375
5.68,7622.5625,9992.125
5.7,7625.9375,9998.0
5.72,7629.3125,10002.4375
5.74,7630.75,10004.6875
5.76,7632.25,10006.6875
5.78,7634.1875,10008.25
5.8,7635.4375,10009.1875
5.82,7636.5,10008.3125
5.84,7636.5,10006.1875
5.86,7636.9375,10006.0625
5.88,7637.875,10006.75
5.9,7639.0625,10008.25
5.92,7639.9375,10009.6875
5.94,7641.0,10010.6875
5.96,7641.875,10011.75
5.98,7643.0625,10013.6875
6.0,7644.8125,10015.5
6.0200000000000005,7645.875,10016.9375
6.04,7647.125,10017.8125
6.0600000000000005,7647.8125,10017.875
6.08,7649.0625,10018.375
6.1000000000000005,7649.9375,10019.5625
6.12,7650.9375,10020.25
6.140000000000001,7651.3125,10020.9375
6.16,7652.0,10021.6875
6.18,7653.1875,10022.875
6.2,7654.0,10023.0625
6.22,7654.5,10022.625
6.24,7654.5625,10022.5625
6.26,7654.8125,10022.9375
6.28,7655.375,10023.3125
6.3,7655.125,10022.9375
6.32,7655.5625,10022.0
6.34,7655.625,10021.5
6.36,7656.4375,10021.5625
6.38,7657.25,10023.0625
6.4,7658.375,10025.5625
6.42,7660.0625,10028.5
6.44,7661.9375,10031.3125
6.46,7662.8125,10033.625
6.48,7664.125,10035.125
6.5,7664.75,10036.9375
6.5200000000000005,7666.25,10038.75
6.54,7667.0625,10040.0625
6.5600000000000005,7668.0625,10041.5625
6.58,7668.625,10041.875
6.6000000000000005,7668.75,10041.0625
6.62,7669.0,10041.375
6.640000000000001,7669.5625,10040.6875
6.66,7669.4375,10039.6875
6.68,7669.25,10037.6875
6.7,7668.75,10035.875
6.72,7668.625,10035.0
6.74,7668.25,10033.75
6.76,7668.125,10032.375
6.78,7667.3125,10030.75
6.8,7666.125,10028.75
6.82,7665.0,10026.0
6.84,7663.625,10023.5625
6.86,7660.875,10017.75
6.88,7657.8125,10012.25
6.9,7656.625,10010.25
6.92,7656.1875,10009.0
6.94,7656.0625,10008.5
6.96,7655.8125,10008.9375
6.98,7656.25,10009.9375
7.0,7656.9375,10011.3125
7.0200000000000005,7657.625,10012.625
7.04,7659.125,10015.0
7.0600000000000005,7665.625,10024.4375
7.08,7665.3125,10023.1875
7.1000000000000005,7665.5625,10022.625
7.12,7665.75,10023.8125
7.140000000000001,7667.125,10026.0
7.16,7667.25,10026.5625
7.18,7668.0625,10029.875
7.2,7669.0625,10033.4375
7.22,7669.25,10034.6875
7.24,7669.5,10035.875
7.26,7670.375,10036.8125
7.28,7670.5625,10038.125
7.3,7670.8125,10038.625
7.32,7671.0,10039.4375
7.34,7671.0,10039.3125
7.36,7671.6875,10040.0625
7.38,7671.9375,10040.3125
7.4,7672.6875,10041.125
7.42,7673.125,10042.0
7.44,7673.625,10042.9375
7.46,7674.0625,10043.625
7.48,7674.4375,10044.0
7.5,7675.5625,10046.125
7.5200000000000005,7675.875,10047.1875
7.54,7676.5625,10048.0
7.5600000000000005,7676.5,10048.9375
7.58,7676.25,10049.4375
7.6000000000000005,7675.9375,10050.375
7.62,7675.75,10049.875
7.640000000000001,7675.1875,10049.125
7.66,7674.375,10048.875
7.68,7674.4375,10049.4375
7.7,7674.6875,10050.5
7.72,7674.5625,10050.4375
7.74,7674.5625,10051.125
7.76,7674.8125,10052.125
7.78,7675.125,10053.0625
7.8,7675.6875,10053.625
7.82,7675.6875,10053.8125
7.84,7675.25,10053.25
7.86,7675.375,10051.4375
7.88,7674.125,10049.25
7.9,7673.5625,10047.3125
7.92,7672.0625,10045.0625
7.94,7671.375,10043.25
7.96,7670.0625,10040.0
7.98,7668.0625,10036.6875
8.0,7666.4375,10033.3125
8.02,7664.75,10029.625
8.040000000000001,7663.0625,10026.3125
8.06,7661.625,10023.6875
8.08,7660.5625,10022.1875
8.1,7660.375,10022.8125
8.120000000000001,7661.0,10024.625
8.14,7662.5625,10027.0
8.16,7663.3125,10027.9375
8.18,7664.75,10032.125
8.2,7665.9375,10035.375
8.22,7668.1875,10041.3125
8.24,7673.625,10051.375
8.26,7673.125,10049.5
8.28,7671.5,10045.375
8.3,7670.625,10041.875
8.32,7669.625,10039.1875
8.34,7669.1875,10039.0
8.36,7668.0,10037.625
8.38,7666.6875,10034.875
8.4,7666.125,10034.0625
8.42,7665.8125,10033.5625
8.44,7665.9375,10032.5625
8.46,7665.5,10030.9375
8.48,7665.9375,10031.875
8.5,7664.9375,10031.1875
8.52,7663.25,10026.9375
8.540000000000001,7661.5,10023.25
8.56,7659.9375,10020.8125
8.58,7659.625,10019.375
8.6,7659.1875,10018.5625
8.620000000000001,7659.625,10019.0
8.64,7660.5625,10019.9375
8.66,7661.875,10020.875
8.68,7662.875,10021.5625
8.700000000000001,7663.4375,10022.0625
8.72,7664.875,10023.6875
8.74,7666.0625,10025.1875
8.76,7666.8125,10025.8125
8.78,7667.25,10026.5
8.8,7667.625,10027.0
8.82,7667.875,10027.1875
8.84,7668.0625,10027.4375
8.86,7667.875,10028.1875
8.88,7667.625,10027.4375
8.9,7666.8125,10027.25
8.92,7665.625,10025.9375
8.94,7663.5,10022.75
8.96,7661.0625,10019.375
8.98,7658.9375,10015.25
9.0,7656.5,10010.625
9.02,7654.75,10006.8125
9.040000000000001,7652.875,10004.625
9.06,7651.5625,10002.75
9.08,7650.75,10002.0625
9.1,7654.9375,10011.8125
9.120000000000001,7662.75,10026.4375
9.14,7663.75,10026.5625
9.16,7663.1875,10026.125
9.18,7663.625,10026.75
9.200000000000001,7663.1875,10024.8125
9.22,7662.8125,10023.375
9.24,7661.8125,10021.8125
9.26,7661.4375,10021.3125
9.28,7661.5,10021.8125
9.3,7661.1875,10022.5625
9.32,7660.5625,10021.5625
9.34,7659.8125,10021.0625
9.36,7659.3125,10020.1875
9.38,7658.625,10019.5625
9.4,7658.6875,10018.5
9.42,7655.875,10009.8125
9.44,7655.1875,10007.625
9.46,7655.3125,10007.6875
9.48,7654.125,10005.875
9.5,7653.125,10003.9375
9.52,7653.5625,10003.8125
9.540000000000001,7653.625,10003.9375
9.56,7653.5,10002.5625
9.58,7652.6875,9999.6875
9.6,7651.375,9995.6875
9.620000000000001,7649.9375,9993.1875
9.64,7649.5625,9991.8125
9.66,7649.0,9988.5625
9.68,7648.9375,9986.4375
9.700000000000001,7649.5,9985.3125
9.72,7651.3125,9984.875
9.74,7653.9375,9985.375
9.76,7657.0625,9988.1875
9.78,7662.5,9994.25
9.8,7668.375,10003.25
9.82,7672.1875,10009.5
9.84,7674.875,10015.25
9.86,7674.75,10016.4375
9.88,7672.0,10013.0625
9.9,7670.375,10011.1875
9.92,7670.9375,10012.9375
9.94,7672.5625,10016.8125
9.96,7674.6875,10021.3125
9.98,7676.625,10024.5
10.0,7677.1875,10026.375
10.02,7678.375,10028.4375
10.040000000000001,7679.0,10030.0
10.06,7679.0625,10031.5625
10.08,7679.5,10031.8125
10.1,7679.1875,10031.3125
10.120000000000001,7677.5625,10030.3125
10.14,7676.25,10028.6875
10.16,7673.8125,10026.875
10.18,7671.875,10025.0625
10.200000000000001,7670.25,10024.5
10.22,7668.5625,10022.3125
10.24,7665.6875,10016.125
10.26,7662.4375,10008.0625
10.28,7659.5,10001.3125
10.3,7657.0,9997.1875
10.32,7656.25,9998.6875
10.34,7657.6875,10003.75
10.36,7661.1875,10013.875
10.38,7666.1875,10026.1875
10.4,7664.125,10021.875
10.42,7657.625,10010.0
10.44,7652.0,9999.375
10.46,7647.625,9990.0625
10.48,7644.75,9983.5
10.5,7643.0,9980.5
10.52,7640.9375,9976.0
10.540000000000001,7638.375,9971.3125
10.56,7636.875,9968.0625
10.58,7635.4375,9964.0625
10.6,7634.0,9961.625
10.620000000000001,7633.0,9959.1875
10.64,7631.8125,9957.25
10.66,7631.8125,9957.3125
10.68,7631.3125,9955.375
10.700000000000001,7630.5,9953.5625
10.72,7629.3125,9950.875
10.74,7628.4375,9948.0625
10.76,7628.0,9944.25
10.78,7628.625,9943.8125
10.8,7629.375,9945.125
10.82,7631.25,9947.375
10.84,7631.4375,9948.375
10.86,7631.8125,9948.75
10.88,7630.75,9943.4375
10.9,7626.875,9930.0625
10.92,7625.625,9924.3125
10.94,7626.125,9924.625
10.96,7627.9375,9926.6875
10.98,7629.625,9926.25
11.0,7631.9375,9925.0
11.02,7634.0,9925.25
11.040000000000001,7637.1875,9928.375
11.06,7641.5625,9933.8125
11.08,7645.625,9941.0
11.1,7648.6875,9947.4375
11.120000000000001,7650.8125,9952.125
11.14,7650.8125,9953.3125
11.16,7648.8125,9952.75
11.18,7646.0,9951.5625
11.200000000000001,7644.3125,9953.0625
11.22,7645.625,9958.4375
11.24,7648.9375,9969.1875
11.26,7651.3125,9976.6875
11.28,7650.0625,9977.8125
11.3,7649.625,9979.25
11.32,7652.125,9987.5
11.34,7651.125,9986.9375
11.36,7648.625,9983.625
11.38,7648.8125,9984.6875
11.4,7648.5625,9985.5625
11.42,7648.5625,9985.125
11.44,7647.6875,9982.375
11.46,7647.4375,9981.1875
11.48,7646.25,9978.3125
11.5,7646.4375,9978.4375
11.52,7644.3125,9973.25
11.540000000000001,7639.875,9963.6875
11.56,7636.75,9958.1875
11.58,7636.125,9958.4375
11.6,7637.625,9961.5625
11.620000000000001,7635.8125,9956.8125
11.64,7637.5,9959.375
11.66,7642.8125,9969.875
11.68,7643.5625,9971.5625
11.700000000000001,7642.1875,9969.6875
11.72,7641.75,9968.5
11.74,7641.625,9966.5
11.76,7640.6875,9964.75
11.78,7639.9375,9963.5625
11.8,7640.0625,9963.5625
11.82,7640.1875,9962.4375
11.84,7639.875,9955.375
11.86,7641.25,9950.5625
11.88,7643.5625,9953.6875
11.9,7645.625,9958.8125
11.92,7648.4375,9960.75
11.94,7649.875,9959.1875
11.96,7653.1875,9962.3125
11.98,7656.4375,9967.375
12.0,7661.0625,9974.8125
12.02,7664.75,9982.5625
12.040000000000001,7669.1875,9990.0
12.06,7673.6875,9996.3125
12.08,7675.875,10001.0625
12.1,7677.625,10004.125
12.120000000000001,7679.625,10008.0
12.14,7681.125,10010.3125
12.16,7680.9375,10010.0625
12.18,7680.3125,10009.875
12.200000000000001,7679.0,10008.875
12.22,7677.125,10007.1875
12.24,7673.8125,10004.5
12.26,7671.0,10002.9375
12.280000000000001,7668.1875,10003.875
12.3,7667.125,10006.0625
12.32,7666.625,10009.3125
12.34,7666.375,10013.375
12.36,7668.5625,10021.25
12.38,7667.5,10017.5625
12.4,7665.5625,10007.125
12.42,7667.625,10005.6875
12.44,7670.125,10004.375
12.46,7670.6875,10002.75
12.48,7669.5625,10000.3125
12.5,7666.9375,9994.0625
12.52,7666.0625,9991.0625
12.540000000000001,7665.4375,9989.9375
12.56,7664.3125,9987.375
12.58,7663.625,9985.75
12.6,7662.875,9985.3125
12.620000000000001,7662.8125,9984.75
12.64,7661.8125,9984.3125
12.66,7661.8125,9983.75
12.68,7661.625,9983.9375
12.700000000000001,7661.8125,9983.875
12.72,7662.25,9984.875
12.74,7662.125,9984.5
12.76,7661.25,9983.25
12.780000000000001,7661.1875,9982.9375
12.8,7661.625,9983.8125
12.82,7662.0625,9984.375
12.84,7662.25,9985.5
12.86,7662.5625,9985.6875
12.88,7662.4375,9985.3125
12.9,7662.6875,9985.5625
12.92,7662.625,9986.0625
12.94,7663.1875,9987.0
12.96,7663.75,9987.9375
12.98,7663.75,9988.0
13.0,7663.9375,9988.6875
13.02,7664.6875,9989.4375
13.040000000000001,7664.8125,9990.25
13.06,7665.6875,9991.3125
13.08,7665.8125,9991.25
13.1,7666.0,9991.6875
13.120000000000001,7665.9375,9990.4375
13.14,7665.75,9990.1875
13.16,7665.5625,9990.0
13.18,7665.8125,9990.4375
13.200000000000001,7666.1875,9989.875
13.22,7664.875,9987.6875
13.24,7664.8125,9987.25
13.26,7665.3125,9988.375
13.280000000000001,7664.5,9986.0
13.3,7662.0625,9978.8125
13.32,7657.625,9972.25
13.34,7653.9375,9967.25
13.36,7654.1875,9967.0
13.38,7657.6875,9973.5
13.4,7660.5625,9979.0
13.42,7661.5,9980.6875
13.44,7660.8125,9977.25
13.46,7658.25,9970.3125
13.48,7655.8125,9965.0
13.5,7654.5625,9961.125
13.52,7656.125,9962.4375
13.540000000000001,7660.625,9968.375
13.56,7665.8125,9975.8125
13.58,7672.5625,9990.25
13.6,7674.0,9993.5625
13.620000000000001,7671.5625,9989.3125
13.64,7671.0,9988.75
13.66,7671.25,9989.0
13.68,7671.0625,9988.875
13.700000000000001,7671.125,9989.8125
13.72,7671.0,9990.5625
13.74,7671.3125,9990.8125
13.76,7671.0625,9990.125
13.780000000000001,7670.875,9990.0
13.8,7670.75,9990.4375
13.82,7670.9375,9991.125
13.84,7671.4375,9991.75
13.86,7670.5625,9991.0625
13.88,7669.875,9989.6875
13.9,7669.0625,9986.8125
13.92,7668.5625,9985.5
13.94,7667.9375,9984.3125
13.96,7667.875,9983.8125
13.98,7666.625,9977.4375
14.0,7661.625,9960.125
14.02,7661.375,9957.6875
14.040000000000001,7662.6875,9958.5
14.06,7663.25,9959.5
14.08,7663.4375,9959.125
14.1,7662.75,9956.75
14.120000000000001,7662.625,9957.125
14.14,7663.5625,9959.6875
14.16,7664.5,9963.375
14.18,7665.1875,9965.5
14.200000000000001,7665.625,9967.0625
14.22,7664.125,9962.5625
14.24,7662.0,9954.125
14.26,7661.5,9948.875
14.280000000000001,7661.6875,9945.875
14.3,7662.25,9944.0
14.32,7663.5,9942.5625
14.34,7665.3125,9942.375
14.36,7667.375,9943.375
14.38,7670.9375,9947.3125
14.4,7674.875,9953.125
14.42,7679.5,9960.125
14.44,7682.6875,9966.0
14.46,7684.8125,9969.8125
14.48,7686.0625,9971.8125
14.5,7686.75,9973.1875
14.52,7686.75,9972.1875
14.540000000000001,7684.375,9969.125
14.56,7680.5,9962.6875
14.58,7675.6875,9956.1875
14.6,7672.875,9955.0
14.620000000000001,7674.625,9961.8125
14.64,7679.9375,9975.5625
14.66,7686.375,9994.1875
14.68,7695.375,10017.8125
14.700000000000001,7701.25,10035.125
14.72,7702.9375,10039.3125
14.74,7703.375,10040.375
14.76,7699.5625,10034.9375
14.780000000000001,7698.0625,10033.75
14.8,7697.375,10034.375
14.82,7698.1875,10037.0
14.84,7698.6875,10039.4375
14.86,7698.6875,10039.75
14.88,7698.9375,10040.5
14.9,7699.0,10041.5
14.92,7698.6875,10042.1875
14.94,7694.4375,10033.0625
14.96,7676.875,9995.875
14.98,7676.4375,9997.8125
15.0,7679.9375,10005.3125
15.02,7679.9375,10006.0625
15.040000000000001,7679.0,10006.25
15.06,7679.375,10009.25
15.08,7679.625,10011.5
15.1,7679.6875,10012.5
15.120000000000001,7678.9375,10012.9375
15.14,7678.125,10012.1875
15.16,7676.875,10011.6875
15.18,7678.25,10016.3125
15.200000000000001,7679.9375,10021.8125
15.22,7679.75,10021.5625
15.24,7678.375,10018.6875
15.26,7677.5625,10015.25
15.280000000000001,7677.5,10011.875
15.3,7679.625,10013.75
15.32,7682.3125,10017.8125
15.34,7684.625,10021.625
15.36,7687.5625,10028.3125
15.38,7691.1875,10036.0625
15.4,7692.25,10036.6875
15.42,7691.1875,10035.625
15.44,7690.9375,10034.875
15.46,7690.8125,10034.4375
15.48,7690.6875,10034.3125
15.5,7690.9375,10035.5
15.52,7689.1875,10034.0
15.540000000000001,7684.8125,10026.25
15.56,7680.5625,10018.25
15.58,7681.125,10019.3125
15.6,7681.375,10019.8125
15.620000000000001,7681.4375,10020.0
15.64,7681.25,10019.25
15.66,7680.25,10016.3125
15.68,7678.5,10012.0
15.700000000000001,7675.8125,10007.9375
15.72,7672.875,10000.6875
15.74,7669.625,9994.1875
15.76,7668.8125,9993.3125
15.780000000000001,7669.0,9993.9375
15.8,7670.0,9994.8125
15.82,7671.0,9998.0625
15.84,7672.6875,10002.3125
15.860000000000001,7674.875,10006.6875
15.88,7674.625,10004.9375
15.9,7675.0,10004.4375
15.92,7676.5625,10006.125
15.94,7678.9375,10008.5625
15.96,7681.75,10011.125
15.98,7683.75,10013.4375
16.0,7684.8125,10014.5
16.02,7683.9375,10012.625
16.04,7683.5625,10012.4375
16.06,7683.6875,10013.6875
16.080000000000002,7685.0625,10016.625
16.1,7685.375,10018.125
16.12,7686.1875,10019.5625
16.14,7686.9375,10021.9375
16.16,7687.875,10023.75
16.18,7688.4375,10025.375
16.2,7688.6875,10026.0
16.22,7688.3125,10025.0
16.240000000000002,7688.1875,10023.875
16.26,7687.75,10022.3125
16.28,7687.3125,10021.9375
16.3,7687.125,10021.5
16.32,7686.9375,10020.1875
16.34,7686.25,10019.6875
16.36,7685.6875,10018.0
16.38,7685.375,10017.25
16.4,7685.875,10017.5
16.42,7685.9375,10017.8125
16.44,7685.6875,10017.375
16.46,7685.25,10016.3125
16.48,7685.25,10015.9375
16.5,7685.6875,10016.375
16.52,7686.0625,10017.75
16.54,7687.0,10018.9375
16.56,7687.6875,10019.75
16.580000000000002,7686.25,10013.875
16.6,7684.0625,10008.0625
16.62,7680.125,10000.125
16.64,7673.25,9982.6875
16.66,7674.8125,9989.8125
16.68,7679.1875,10004.0625
16.7,7682.5,10011.9375
16.72,7683.6875,10015.125
16.740000000000002,7683.5,10015.5
16.76,7684.125,10018.3125
16.78,7684.9375,10021.375
16.8,7685.0625,10021.75
16.82,7684.875,10023.9375
16.84,7684.9375,10025.25
16.86,7684.125,10023.875
16.88,7684.375,10023.25
16.9,7686.0625,10025.6875
16.92,7685.875,10025.375
16.94,7685.375,10025.3125
16.96,7686.5,10028.875
16.98,7685.625,10025.625
17.0,7683.125,10018.9375
17.02,7682.5625,10016.3125
17.04,7683.75,10018.375
17.06,7681.3125,10005.4375
17.080000000000002,7681.4375,9998.125
17.1,7681.4375,9994.75
17.12,7681.9375,9991.875
17.14,7682.125,9988.375
17.16,7681.4375,9983.75
17.18,7679.375,9979.0
17.2,7678.4375,9974.1875
17.22,7679.6875,9972.125
17.240000000000002,7681.6875,9973.875
17.26,7686.6875,9981.6875
17.28,7692.9375,9994.0
17.3,7698.0625,10006.0
17.32,7701.5,10014.75
17.34,7702.4375,10018.1875
17.36,7701.1875,10017.1875
17.38,7698.875,10014.0
17.400000000000002,7695.0625,10006.75
17.42,7690.375,9997.875
17.44,7687.5625,9990.6875
17.46,7685.875,9983.625
17.48,7685.5,9980.8125
17.5,7687.3125,9984.0625
17.52,7690.125,9991.625
17.54,7692.875,10000.4375
17.56,7693.3125,10005.8125
17.580000000000002,7694.8125,10015.125
17.6,7696.4375,10025.5
17.62,7701.8125,10038.4375
17.64,7705.75,10045.75
17.66,7706.8125,10048.3125
17.68,7707.1875,10050.5625
17.7,7707.5625,10053.125
17.72,7708.5625,10055.1875
17.740000000000002,7709.6875,10057.3125
17.76,7707.25,10054.0
17.78,7698.75,10033.0625
17.8,7681.625,9992.375
17.82,7674.75,9979.4375
17.84,7674.25,9987.3125
17.86,7678.625,9999.875
17.88,7686.8125,10014.9375
17.900000000000002,7694.875,10033.8125
17.92,7706.375,10057.875
17.94,7709.1875,10062.1875
17.96,7707.3125,10057.5
17.98,7706.75,10056.4375
18.0,7708.125,10060.375
18.02,7709.1875,10062.4375
18.04,7706.375,10053.625
18.06,7701.6875,10037.25
18.080000000000002,7698.9375,10026.125
18.1,7699.0625,10023.4375
18.12,7701.375,10025.5625
18.14,7704.25,10029.8125
18.16,7707.5,10032.3125
18.18,7709.3125,10033.0625
18.2,7709.5625,10031.75
18.22,7711.1875,10034.0625
18.240000000000002,7713.1875,10034.0625
18.26,7714.625,10034.5
18.28,7716.5,10035.25
18.3,7718.75,10036.875
18.32,7721.6875,10038.0
18.34,7724.9375,10040.125
18.36,7728.625,10043.625
18.38,7732.0625,10047.8125
18.400000000000002,7735.9375,10052.625
18.42,7738.6875,10056.3125
18.44,7739.875,10058.8125
18.46,7741.0625,10061.0
18.48,7741.625,10062.375
18.5,7741.3125,10062.6875
18.52,7740.3125,10062.4375
18.54,7737.875,10060.8125
18.56,7734.25,10057.375
18.580000000000002,7730.375,10053.8125
18.6,7727.125,10049.6875
18.62,7723.75,10046.125
18.64,7721.125,10042.6875
18.66,7719.5625,10040.5
18.68,7718.875,10039.625
18.7,7718.9375,10040.6875
18.72,7719.875,10044.6875
18.740000000000002,7722.75,10056.1875
18.76,7727.75,10070.25
18.78,7727.6875,10077.8125
18.8,7732.0625,10093.625
18.82,7725.3125,10080.0
18.84,7717.5,10067.375
18.86,7718.8125,10072.9375
18.88,7718.25,10074.0
18.900000000000002,7718.5625,10075.0625
18.92,7718.25,10075.625
18.94,7718.5625,10075.625
18.96,7719.375,10075.625
18.98,7717.625,10067.4375
19.0,7710.0,10049.5625
19.02,7705.375,10039.125
19.04,7703.4375,10033.8125
19.06,7702.6875,10030.8125
19.080000000000002,7701.625,10027.5
19.1,7701.625,10024.1875
19.12,7702.0,10022.4375
19.14,7703.3125,10022.0625
19.16,7705.3125,10023.5
19.18,7707.5625,10026.25
19.2,7711.25,10030.125
19.22,7714.6875,10034.75
19.240000000000002,7717.375,10038.625
19.26,7720.25,10043.1875
19.28,7722.8125,10048.125
19.3,7724.625,10052.0
19.32,7725.4375,10054.8125
19.34,7726.0,10057.0
19.36,7726.6875,10059.125
19.38,7726.375,10059.6875
19.400000000000002,7725.1875,10059.25
19.42,7723.6875,10057.5625
19.44,7722.0,10055.4375
19.46,7719.875,10052.5
19.48,7716.8125,10047.625
19.5,7713.8125,10043.375
19.52,7711.0625,10038.9375
19.54,7707.875,10035.1875
19.56,7705.0625,10031.125
19.580000000000002,7702.0625,10027.375
19.6,7700.8125,10027.4375
19.62,7701.4375,10030.0625
19.64,7702.0,10033.6875
19.66,7703.3125,10039.125
19.68,7706.375,10047.3125
19.7,7708.6875,10052.8125
19.72,7715.8125,10067.75
19.740000000000002,7723.4375,10082.375
19.76,7725.875,10086.5625
19.78,7725.3125,10086.5
19.8,7724.875,10086.75
19.82,7722.875,10084.5625
19.84,7719.9375,10081.6875
19.86,7717.6875,10079.125
19.88,7717.9375,10081.5
19.900000000000002,7721.0,10089.1875
19.92,7723.25,10093.75
19.94,7722.9375,10092.4375
19.96,7720.9375,10086.375
19.98,7719.0625,10082.5
20.0,7718.6875,10081.8125
20.02,7718.0625,10080.9375
20.04,7717.875,10080.125
20.06,7717.8125,10079.875
20.080000000000002,7718.5,10080.6875
20.1,7718.625,10081.5625
20.12,7717.375,10079.4375
20.14,7715.9375,10076.4375
20.16,7714.5625,10074.125
20.18,7713.5,10072.375
20.2,7712.625,10071.5625
20.22,7712.5625,10070.8125
20.240000000000002,7712.5,10070.6875
20.26,7712.375,10070.8125
20.28,7712.625,10071.9375
20.3,7712.3125,10071.8125
20.32,7712.0625,10070.9375
20.34,7711.625,10070.75
20.36,7711.8125,10071.375
20.38,7711.625,10071.5625
20.400000000000002,7710.9375,10069.4375
20.42,7705.6875,10053.5
20.44,7698.75,10030.9375
20.46,7696.25,10020.4375
20.48,7696.375,10017.5625
20.5,7696.6875,10013.875
20.52,7697.9375,10010.0
20.54,7698.5625,10005.125
20.56,7700.6875,10003.5
20.580000000000002,7702.6875,10004.25
20.6,7703.75,10005.625
20.62,7704.125,10006.875
20.64,7702.6875,10005.1875
20.66,7700.9375,10002.375
20.68,7698.625,9999.1875
20.7,7694.25,9992.5625
20.72,7689.25,9986.625
20.740000000000002,7684.75,9980.875
20.76,7681.9375,9977.5625
20.78,7682.0,9978.6875
20.8,7682.8125,9980.125
20.82,7684.5,9982.375
20.84,7686.5,9985.0625
20.86,7688.75,9988.0
20.88,7689.3125,9986.9375
20.900000000000002,7688.6875,9985.1875
20.92,7686.6875,9980.6875
20.94,7683.5625,9973.3125
20.96,7680.3125,9968.625
20.98,7676.875,9963.875
21.0,7673.125,9959.0
21.02,7669.625,9955.4375
21.04,7671.625,9963.25
21.06,7682.375,9991.6875
21.080000000000002,7699.9375,10036.625
21.1,7710.125,10063.375
21.12,7701.4375,10044.5
21.14,7700.5625,10046.0
21.16,7697.1875,10039.375
21.18,7697.8125,10041.75
21.2,7699.125,10045.375
21.22,7699.8125,10047.9375
21.240000000000002,7700.9375,10050.875
21.26,7701.875,10053.4375
21.28,7702.0625,10054.625
21.3,7702.3125,10054.75
21.32,7702.4375,10055.75
21.34,7700.0625,10049.1875
21.36,7700.375,10049.75
21.38,7700.0625,10049.75
21.400000000000002,7700.25,10051.625
21.42,7700.8125,10053.5625
21.44,7701.125,10054.9375
21.46,7701.625,10056.5625
21.48,7702.625,10059.625
21.5,7703.4375,10061.8125
21.52,7703.75,10062.125
21.54,7703.8125,10062.1875
21.56,7699.5625,10051.6875
21.580000000000002,7693.5,10038.0625
21.6,7690.8125,10031.4375
21.62,7690.5,10031.1875
21.64,7689.6875,10029.375
21.66,7687.0,10022.625
21.68,7682.6875,10009.875
21.7,7680.3125,9999.3125
21.72,7679.0625,9995.75
21.740000000000002,7678.0625,9993.375
21.76,7677.6875,9992.25
21.78,7677.625,9991.3125
21.8,7678.375,9990.25
21.82,7681.3125,9989.625
21.84,7685.125,9992.5
21.86,7691.3125,10000.125
21.88,7696.375,10007.8125
21.900000000000002,7698.0625,10011.625
21.92,7697.0625,10010.375
21.94,7695.375,10008.5
21.96,7693.6875,10006.75
21.98,7692.8125,10005.5
22.0,7692.75,10007.0625
22.02,7694.375,10013.9375
22.04,7697.6875,10024.0625
22.06,7697.8125,10027.4375
22.080000000000002,7696.0625,10027.75
22.1,7700.5,10042.625
22.12,7703.25,10051.4375
22.14,7704.75,10056.5625
22.16,7706.25,10061.1875
22.18,7707.0,10063.6875
22.2,7707.75,10066.125
22.22,7707.9375,10067.4375
22.240000000000002,7706.9375,10064.625
22.26,7704.9375,10059.625
22.28,7699.1875,10050.25
22.3,7698.0625,10047.3125
22.32,7698.9375,10049.0
22.34,7699.25,10047.4375
22.36,7699.8125,10045.8125
22.38,7701.875,10046.625
22.400000000000002,7702.375,10044.3125
22.42,7703.4375,10043.875
22.44,7705.8125,10044.5625
22.46,7708.3125,10046.0625
22.48,7711.0,10048.625
22.5,7712.125,10050.75
22.52,7712.5,10052.5
22.54,7712.75,10052.3125
22.56,7712.6875,10051.875
22.580000000000002,7712.625,10051.8125
22.6,7711.875,10051.3125
22.62,7710.5,10050.125
22.64,7708.1875,10049.125
22.66,7705.8125,10048.5625
22.68,7704.25,10051.125
22.7,7704.3125,10055.4375
22.72,7706.125,10062.6875
22.740000000000002,7708.375,10067.25
22.76,7709.5625,10071.0
22.78,7711.375,10076.25
22.8,7711.3125,10077.375
22.82,7710.75,10077.0625
22.84,7711.0625,10078.8125
22.86,7710.8125,10080.6875
22.88,7711.8125,10082.375
22.900000000000002,7712.4375,10084.9375
22.92,7713.0,10086.4375
22.94,7713.375,10087.8125
22.96,7713.8125,10089.25
22.98,7713.875,10090.0625
23.0,7713.875,10090.625
23.02,7713.8125,10090.625
23.04,7713.5,10091.3125
23.06,7714.0,10091.625
23.080000000000002,7714.5625,10092.8125
23.1,7714.875,10093.875
23.12,7715.1875,10094.6875
23.14,7715.8125,10095.9375
23.16,7716.125,10097.0625
23.18,7716.375,10097.875
23.2,7716.5,10098.75
23.22,7717.125,10099.25
23.240000000000002,7717.1875,10100.0625
23.26,7717.625,10100.6875
23.28,7717.875,10100.8125
23.3,7718.5,10101.1875
23.32,7718.1875,10100.5
23.34,7717.8125,10099.8125
23.36,7717.625,10099.375
23.38,7717.75,10099.25
23.400000000000002,7717.5,10099.3125
23.42,7717.375,10098.5
23.44,7717.375,10098.4375
23.46,7716.9375,10099.375
23.48,7718.125,10101.375
23.5,7718.25,10102.75
23.52,7718.8125,10103.5
23.54,7718.5,10102.75
23.56,7718.4375,10102.875
23.580000000000002,7718.25,10102.5
23.6,7718.3125,10102.25
23.62,7718.8125,10102.5
23.64,7719.375,10103.1875
23.66,7719.4375,10103.625
23.68,7719.625,10104.4375
23.7,7720.0,10104.375
23.72,7720.5625,10105.4375
23.740000000000002,7720.375,10105.1875
23.76,7720.4375,10105.0
23.78,7719.9375,10104.125
23.8,7719.8125,10104.125
23.82,7719.5625,10103.25
23.84,7718.9375,10102.375
23.86,7718.5625,10102.1875
23.88,7718.5625,10102.6875
23.900000000000002,7718.625,10103.3125
23.92,7718.375,10102.875
23.94,7717.875,10102.0
23.96,7717.125,10100.75
23.98,7716.625,10100.3125
24.0,7716.3125,10100.5
24.02,7716.0625,10099.6875
24.04,7715.9375,10099.9375
24.060000000000002,7715.8125,10100.0625
24.080000000000002,7716.25,10100.6875
24.1,7716.125,10100.9375
24.12,7715.625,10099.6875
24.14,7715.3125,10099.4375
24.16,7714.875,10098.5
24.18,7713.9375,10096.125
24.2,7712.6875,10094.0
24.22,7711.9375,10092.1875
24.240000000000002,7711.4375,10091.1875
24.26,7710.875,10090.25
24.28,7710.9375,10090.25
24.3,7710.6875,10090.125
24.32,7710.3125,10089.4375
24.34,7710.0,10088.9375
24.36,7709.0,10087.4375
24.38,7708.5,10085.6875
24.400000000000002,7707.1875,10083.4375
24.42,7706.4375,10081.3125
24.44,7705.875,10080.125
24.46,7705.5625,10079.0625
24.48,7704.8125,10077.3125
24.5,7704.0625,10075.9375
24.52,7703.375,10074.1875
24.54,7702.0,10071.4375
24.560000000000002,7700.9375,10069.0
24.580000000000002,7699.875,10066.75
24.6,7699.1875,10065.1875
24.62,7698.375,10063.125
24.64,7697.5625,10061.3125
24.66,7696.625,10059.6875
24.68,7695.625,10057.625
24.7,7694.6875,10055.4375
24.72,7693.8125,10053.25
24.740000000000002,7692.625,10051.375
24.76,7691.625,10049.3125
24.78,7690.5625,10046.75
24.8,7690.0625,10045.3125
24.82,7689.125,10043.375
24.84,7687.6875,10041.3125
24.86,7687.25,10039.5625
24.88,7686.25,10038.3125
24.900000000000002,7685.5,10036.3125
24.92,7684.9375,10035.3125
24.94,7684.375,10032.8125
24.96,7683.3125,10030.9375
24.98,7682.9375,10029.3125
25.0,7682.5625,10028.5625
25.02,7682.4375,10027.5625
25.04,7681.75,10027.25
25.060000000000002,7681.4375,10026.9375
25.080000000000002,7681.625,10026.6875
25.1,7681.4375,10026.125
25.12,7681.1875,10025.875
25.14,7681.0625,10025.75
25.16,7680.875,10024.6875
25.18,7680.625,10025.1875
25.2,7680.25,10024.25
25.22,7680.0,10023.9375
25.240000000000002,7679.875,10023.1875
25.26,7679.3125,10022.625
25.28,7678.9375,10022.0
25.3,7678.75,10021.375
25.32,7678.375,10020.5
25.34,7677.9375,10020.1875
25.36,7677.875,10019.5625
25.38,7677.3125,10018.6875
25.400000000000002,7677.3125,10018.1875
25.42,7677.0,10017.8125
25.44,7676.4375,10017.1875
25.46,7676.25,10016.625
25.48,7676.0625,10016.125
25.5,7675.875,10015.8125
25.52,7675.5625,10015.6875
25.54,7675.875,10015.125
25.560000000000002,7675.5,10015.0
25.580000000000002,7675.125,10014.8125
25.6,7674.75,10014.5
25.62,7674.8125,10014.3125
25.64,7674.5,10013.6875
25.66,7674.4375,10013.3125
25.68,7674.25,10013.5625
25.7,7674.4375,10013.375
25.72,7674.1875,10013.0
25.740000000000002,7673.6875,10012.875
25.76,7673.75,10012.9375
25.78,7673.5,10012.6875
25.8,7673.4375,10012.5
25.82,7673.1875,10011.875
25.84,7672.625,10011.6875
25.86,7672.8125,10010.6875
25.88,7672.0,10009.25
25.900000000000002,7671.4375,10008.125
25.92,7671.1875,10007.25
25.94,7670.9375,10006.375
25.96,7670.5625,10005.6875
25.98,7670.3125,10005.375
26.0,7670.1875,10004.1875
26.02,7669.9375,10003.6875
26.04,7669.3125,10002.875
26.060000000000002,7669.5,10001.9375
26.080000000000002,7669.1875,10001.625
26.1,7668.875,10001.0625
26.12,7668.1875,10000.1875
26.14,7668.3125,10000.125
26.16,7668.0625,9999.5625
26.18,7667.5625,9998.4375
26.2,7667.0625,9997.75
26.22,7666.6875,9996.875
26.240000000000002,7666.4375,9996.1875
26.26,7666.3125,9995.1875
26.28,7665.8125,9994.75
26.3,7665.875,9994.3125
26.32,7665.25,9993.8125
26.34,7665.5,9993.0625
26.36,7664.8125,9992.1875
26.38,7664.5625,9991.5
26.400000000000002,7664.125,9990.9375
26.42,7664.0,9990.9375
26.44,7664.0625,9990.6875
26.46,7663.5,9990.0
26.48,7663.5,9989.6875
26.5,7663.0625,9989.5
26.52,7663.0,9988.875
26.54,7662.8125,9988.875
26.560000000000002,7662.625,9988.1875
26.580000000000002,7662.375,9987.875
26.6,7662.25,9987.0
26.62,7662.0,9986.5625
26.64,7661.875,9986.75
26.66,7662.0625,9987.5
26.68,7662.0,9987.625
26.7,7662.5,9988.1875
26.72,7662.75,9988.3125
26.740000000000002,7662.625,9988.0625
26.76,7662.5625,9988.1875
26.78,7662.6875,9987.875
26.8,7662.1875,9986.9375
26.82,7662.3125,9986.75
26.84,7662.6875,9987.5
26.86,7662.9375,9987.6875
26.88,7663.1875,9987.9375
26.900000000000002,7663.5625,9987.9375
26.92,7663.3125,9987.625
26.94,7663.25,9987.1875
26.96,7663.5,9987.5
26.98,7663.625,9987.25
27.0,7663.875,9987.1875
27.02,7663.9375,9987.5625
27.04,7664.0625,9988.125
27.060000000000002,7664.5625,9988.1875
27.080000000000002,7664.0625,9987.875
27.1,7664.625,9987.8125
27.12,7664.75,9988.3125
27.14,7664.5,9988.3125
27.16,7664.75,9988.625
27.18,7664.75,9988.9375
27.2,7664.625,9989.0625
27.22,7664.875,9988.5625
27.240000000000002,7664.875,9989.25
27.26,7664.625,9988.5
27.28,7664.75,9988.5
27.3,7664.5625,9988.3125
27.32,7664.4375,9988.125
27.34,7664.5,9988.125
27.36,7664.8125,9988.5
27.38,7664.875,9989.1875
27.400000000000002,7665.0,9989.4375
27.42,7665.4375,9990.0
27.44,7665.875,9990.5625
27.46,7666.25,9991.1875
27.48,7666.4375,9991.9375
27.5,7666.375,9992.5
27.52,7666.8125,9993.375
27.54,7667.125,9993.875
27.560000000000002,7667.5,9994.6875
27.580000000000002,7667.25,9995.1875
27.6,7667.8125,9995.9375
27.62,7668.125,9996.125
27.64,7668.4375,9996.8125
27.66,7668.5,9997.5
27.68,7668.8125,9997.875
27.7,7669.0625,9998.1875
27.72,7669.5625,9999.125
27.740000000000002,7670.1875,10000.625
27.76,7671.125,10001.875
27.78,7671.6875,10003.0
27.8,7672.0625,10003.75
27.82,7673.1875,10005.5625
27.84,7673.625,10006.25
27.86,7673.5,10006.0625
27.88,7673.0625,10004.5
27.900000000000002,7672.9375,10004.0
27.92,7673.0,10003.3125
27.94,7672.9375,10003.4375
27.96,7672.9375,10003.3125
27.98,7673.125,10002.6875
28.0,7672.9375,10003.0625
28.02,7673.125,10003.1875
28.04,7673.5,10003.625
28.060000000000002,7674.0625,10005.25
28.080000000000002,7675.1875,10007.4375
28.1,7675.75,10008.1875
28.12,7676.0,10008.5
28.14,7676.3125,10009.375
28.16,7676.6875,10009.0625
28.18,7676.625,10008.875
28.2,7676.625,10008.6875
28.22,7677.0625,10008.625
28.240000000000002,7677.875,10009.5
28.26,7677.8125,10009.875
28.28,7678.0,10010.375
28.3,7678.25,10010.375
28.32,7678.1875,10010.4375
28.34,7677.9375,10009.625
28.36,7678.0,10009.1875
28.38,7677.875,10008.6875
28.400000000000002,7677.4375,10008.0
28.42,7677.625,10007.9375
28.44,7677.75,10007.75
28.46,7677.8125,10008.25
28.48,7677.8125,10008.625
28.5,7677.5,10008.125
28.52,7677.5625,10008.5
28.54,7677.4375,10008.375
28.560000000000002,7677.5,10008.1875
28.580000000000002,7677.8125,10008.375
28.6,7677.6875,10008.9375
28.62,7677.5625,10008.875
28.64,7677.5,10008.4375
28.66,7677.4375,10008.0625
28.68,7677.0625,10007.375
28.7,7677.375,10007.5
28.72,7677.25,10008.0625
28.740000000000002,7677.125,10008.1875
28.76,7677.1875,10008.0625
28.78,7676.6875,10007.5625
28.8,7676.375,10006.5625
28.82,7675.75,10005.125
28.84,7675.9375,10005.1875
28.86,7675.75,10004.875
28.88,7675.75,10005.5
28.900000000000002,7675.8125,10004.8125
28.92,7675.5625,10003.9375
28.94,7675.5,10003.5625
28.96,7675.3125,10003.0
28.98,7675.0625,10002.0
29.0,7675.0625,10001.25
29.02,7675.0,10000.5
29.04,7674.8125,9999.6875
29.060000000000002,7674.875,9999.625
29.080000000000002,7675.1875,9999.625
29.1,7674.8125,9999.0
29.12,7674.25,9998.8125
29.14,7674.4375,9998.4375
29.16,7674.75,9998.6875
29.18,7674.5,9998.375
29.2,7674.3125,9997.9375
29.22,7673.9375,9997.4375
29.240000000000002,7673.875,9997.0
29.26,7674.125,9996.9375
29.28,7674.125,9997.5625
29.3,7674.0,9997.375
29.32,7673.875,9997.5
29.34,7674.0,9997.5
29.36,7674.1875,9997.5625
29.38,7673.9375,9998.0625
29.400000000000002,7674.0625,9997.75
29.42,7674.3125,9997.625
29.44,7673.9375,9997.625
29.46,7673.5,9997.5
29.48,7673.4375,9997.75
29.5,7673.375,9997.5625
29.52,7673.5625,9997.625
29.54,7673.4375,9997.8125
29.560000000000002,7673.125,9997.5625
29.580000000000002,7673.375,9997.75
29.6,7673.75,9998.6875
29.62,7674.25,10000.0
29.64,7674.25,10000.375
29.66,7674.5,10000.5625
29.68,7674.0625,10000.75
29.7,7674.375,10001.25
29.72,7674.875,10002.1875
29.740000000000002,7675.125,10002.6875
29.76,7675.0625,10003.0
29.78,7675.4375,10003.4375
29.8,7675.5625,10003.8125
29.82,7675.6875,10004.3125
29.84,7675.875,10004.5
29.86,7675.875,10004.9375
29.88,7675.9375,10005.625
29.900000000000002,7675.9375,10005.0625
29.92,7675.8125,10005.4375
29.94,7675.75,10005.375
29.96,7676.0,10006.125
29.98,7675.75,10006.0625
30.0,7675.8125,10006.125
30.02,7675.875,10005.625
30.04,7676.0,10005.9375
30.060000000000002,7675.9375,10006.25
30.080000000000002,7676.0,10006.4375
30.1,7676.125,10005.8125
30.12,7676.75,10005.75
30.14,7676.4375,10006.0625
30.16,7676.4375,10006.5
30.18,7676.75,10006.875
30.2,7677.125,10006.9375
30.22,7677.0625,10006.375
30.240000000000002,7676.75,10005.6875
30.26,7676.75,10005.75
30.28,7676.8125,10005.9375
30.3,7676.9375,10005.5
30.32,7676.875,10006.125
30.34,7676.8125,10005.8125
30.36,7677.0625,10006.25
30.38,7677.125,10005.9375
30.400000000000002,7677.375,10006.1875
30.42,7677.125,10005.9375
30.44,7677.8125,10006.125
30.46,7677.5,10007.0
30.48,7677.9375,10007.3125
30.5,7678.125,10007.6875
30.52,7678.25,10007.8125
30.54,7678.0625,10008.375
30.560000000000002,7678.25,10008.75
30.580000000000002,7679.125,10009.4375
30.6,7679.3125,10009.8125
30.62,7679.3125,10010.0
30.64,7679.0,10010.5
30.66,7678.8125,10010.0625
30.68,7679.1875,10010.5
30.7,7679.3125,10010.9375
30.72,7679.3125,10010.875
30.740000000000002,7678.875,10010.375
30.76,7678.875,10010.0625
30.78,7679.0,10010.1875
30.8,7679.1875,10010.125
30.82,7679.75,10010.6875
30.84,7679.5,10011.3125
30.86,7679.875,10012.1875
30.88,7680.4375,10013.6875
30.900000000000002,7681.125,10015.75
30.92,7681.75,10016.0625
30.94,7681.75,10015.75
30.96,7682.3125,10016.5625
30.98,7683.4375,10018.6875
31.0,7684.625,10021.375
31.02,7685.3125,10023.0
31.04,7685.9375,10024.375
31.060000000000002,7686.6875,10025.9375
31.080000000000002,7687.5,10027.3125
31.1,7687.8125,10029.375
31.12,7688.625,10030.5
31.14,7688.875,10031.0625
31.16,7688.4375,10030.4375
31.18,7688.0,10029.6875
31.2,7687.75,10029.9375
31.220000000000002,7687.875,10029.125
31.240000000000002,7687.9375,10029.0
31.26,7687.75,10028.1875
31.28,7687.4375,10023.4375
31.3,7689.1875,10024.4375
31.32,7691.0,10028.0625
31.34,7692.1875,10027.6875
31.36,7690.0625,10020.5625
31.38,7689.375,10016.3125
31.400000000000002,7689.75,10015.25
31.42,7691.0625,10016.3125
31.44,7692.75,10018.25
31.46,7693.8125,10019.0625
31.48,7694.8125,10019.8125
31.5,7695.0,10020.3125
31.52,7694.875,10020.25
31.54,7694.75,10020.375
31.560000000000002,7694.8125,10021.6875
31.580000000000002,7694.1875,10023.0625
31.6,7693.875,10026.875
31.62,7695.0,10033.4375
31.64,7697.0,10042.625
31.66,7698.75,10049.5625
31.68,7699.375,10054.1875
31.7,7700.3125,10056.375
31.720000000000002,7700.625,10058.0
31.740000000000002,7701.0,10059.375
31.76,7700.875,10061.0
31.78,7701.8125,10062.1875
31.8,7702.25,10063.4375
31.82,7702.875,10065.25
31.84,7703.0625,10066.625
31.86,7702.9375,10067.0625
31.88,7703.1875,10067.0625
31.900000000000002,7703.0625,10067.0
31.92,7702.6875,10067.375
31.94,7702.8125,10068.0
31.96,7703.125,10068.5625
31.98,7703.0625,10068.875
32.0,7702.9375,10069.0625
32.02,7702.5,10068.375
32.04,7702.125,10068.0
32.06,7701.9375,10067.25
32.08,7701.25,10066.375
32.1,7700.75,10065.3125
32.12,7700.3125,10064.3125
32.14,7699.4375,10062.5625
32.160000000000004,7698.5625,10060.625
32.18,7698.0625,10059.625
32.2,7697.5625,10059.1875
32.22,7697.75,10058.9375
32.24,7697.25,10058.0625
32.26,7696.5625,10056.375
32.28,7696.0625,10055.1875
32.3,7695.625,10053.75
32.32,7695.0,10052.25
32.34,7694.375,10051.0625
32.36,7693.6875,10049.5
32.38,7693.375,10048.625
32.4,7693.25,10047.75
32.42,7692.4375,10046.625
32.44,7692.375,10045.625
32.46,7691.9375,10044.9375
32.480000000000004,7692.1875,10044.9375
32.5,7692.125,10044.625
32.52,7691.8125,10043.625
32.54,7691.6875,10043.125
32.56,7691.1875,10042.5
32.58,7691.0625,10041.5625
32.6,7690.25,10040.625
32.62,7690.0,10039.9375
32.64,7689.1875,10038.4375
32.660000000000004,7688.8125,10037.625
32.68,7688.25,10036.375
32.7,7687.9375,10035.5625
32.72,7687.8125,10034.875
32.74,7687.0,10034.0625
32.76,7686.5,10032.625
32.78,7686.1875,10032.3125
32.8,7685.875,10031.9375
32.82,7685.5625,10031.0
32.84,7685.25,10030.3125
32.86,7684.875,10029.625
32.88,7684.6875,10028.75
32.9,7684.5625,10028.6875
32.92,7684.1875,10028.0
32.94,7683.875,10028.0
32.96,7684.0625,10027.875
32.980000000000004,7683.625,10027.75
33.0,7683.5625,10027.3125
33.02,7683.875,10027.25
33.04,7683.6875,10027.0625
33.06,7683.5625,10027.125
33.08,7683.75,10027.4375
33.1,7683.75,10027.6875
33.12,7683.9375,10028.125
33.14,7683.875,10028.0625
33.160000000000004,7684.0,10028.5
33.18,7684.0625,10028.0625
33.2,7683.3125,10027.125
33.22,7683.375,10026.4375
33.24,7683.25,10025.6875
33.26,7683.25,10025.5625
33.28,7683.1875,10025.4375
33.3,7683.625,10025.875
33.32,7683.375,10026.0
33.34,7683.375,10025.5
33.36,7683.4375,10025.125
33.38,7683.1875,10025.0625
33.4,7683.0625,10024.4375
33.42,7682.9375,10024.6875
33.44,7683.3125,10025.1875
33.46,7683.6875,10025.75
33.480000000000004,7683.875,10026.6875
33.5,7684.1875,10026.5
33.52,7683.75,10026.0625
33.54,7683.625,10025.5
33.56,7683.4375,10024.875
33.58,7682.8125,10024.0625
33.6,7683.0,10023.3125
33.62,7682.0,10022.375
33.64,7682.0,10021.4375
33.660000000000004,7681.6875,10020.6875
33.68,7681.1875,10019.8125
33.7,7681.3125,10019.5625
33.72,7681.1875,10019.125
33.74,7680.5625,10018.125
33.76,7679.875,10017.1875
33.78,7680.0625,10016.75
33.8,7679.625,10016.375
33.82,7679.3125,10016.125
33.84,7679.5,10015.6875
33.86,7679.125,10015.625
33.88,7678.6875,10015.1875
33.9,7678.3125,10014.5
33.92,7678.0,10014.0
33.94,7677.8125,10013.4375
33.96,7677.1875,10012.6875
33.980000000000004,7677.25,10012.0625
34.0,7677.125,10011.8125
34.02,7676.75,10011.3125
34.04,7676.75,10010.4375
34.06,7676.0,10009.9375
34.08,7675.6875,10009.5625
34.1,7675.5,10008.75
34.12,7675.3125,10008.4375
34.14,7674.6875,10007.25
34.160000000000004,7674.125,10005.875
34.18,7673.875,10004.6875
34.2,7673.3125,10003.1875
34.22,7673.125,10002.3125
34.24,7672.6875,10001.375
34.26,7672.1875,10000.8125
34.28,7672.25,9999.5625
34.300000000000004,7671.5625,9998.375
34.32,7671.0625,9997.4375
34.34,7670.625,9996.375
34.36,7670.625,9995.5
34.38,7670.1875,9994.75
34.4,7670.0,9994.1875
34.42,7670.0,9994.3125
34.44,7669.875,9993.6875
34.46,7669.5625,9993.0625
34.480000000000004,7669.6875,9992.1875
34.5,7669.0,9991.5
34.52,7668.8125,9991.1875
34.54,7668.4375,9990.0
34.56,7668.25,9989.6875
34.58,7667.9375,9989.1875
34.6,7667.6875,9988.6875
34.62,7668.0,9988.6875
34.64,7667.3125,9987.5625
34.660000000000004,7667.375,9987.375
34.68,7667.125,9986.625
34.7,7667.0,9986.75
34.72,7666.9375,9986.5
34.74,7666.9375,9986.4375
34.76,7666.5625,9986.4375
34.78,7667.0625,9986.25
34.800000000000004,7666.875,9986.5
34.82,7667.0,9986.0625
34.84,7666.6875,9986.0625
34.86,7666.8125,9986.625
34.88,7666.5625,9986.0625
34.9,7666.875,9986.0
34.92,7666.6875,9986.25
34.94,7666.875,9986.5
34.96,7666.625,9986.1875
34.980000000000004,7667.0,9986.875
35.0,7667.0,9986.375
35.02,7667.3125,9987.0
35.04,7667.0,9986.8125
35.06,7667.1875,9987.125
35.08,7667.5625,9987.3125
35.1,7667.5,9987.4375
35.12,7667.6875,9987.75
35.14,7667.875,9988.1875
35.160000000000004,7667.6875,9988.25
35.18,7667.5625,9988.4375
35.2,7667.875,9988.6875
35.22,7668.0,9989.3125
35.24,7668.125,9989.375
35.26,7668.3125,9989.875
35.28,7668.5625,9990.0625
35.300000000000004,7668.3125,9990.3125
35.32,7668.875,9990.875
35.34,7668.8125,9991.1875
35.36,7668.875,9991.625
35.38,7668.875,9991.9375
35.4,7669.5,9992.75
35.42,7669.4375,9992.875
35.44,7669.1875,9993.375
35.46,7669.375,9993.3125
35.480000000000004,7669.375,9992.5
35.5,7668.8125,9991.375
35.52,7668.75,9991.3125
35.54,7668.625,9991.125
35.56,7668.6875,9990.6875
35.58,7668.625,9990.75
35.6,7668.4375,9990.0
35.62,7668.0625,9989.25
35.64,7668.375,9989.1875
35.660000000000004,7667.9375,9989.0625
35.68,7667.8125,9989.4375
35.7,7668.4375,9989.375
35.72,7668.3125,9989.3125
35.74,7668.375,9989.75
35.76,7668.3125,9990.25
35.78,7668.5625,9990.4375
35.800000000000004,7668.5,9990.125
35.82,7668.375,9990.25
35.84,7668.6875,9990.4375
35.86,7669.125,9990.4375
35.88,7668.8125,9991.0
35.9,7668.8125,9991.375
35.92,7669.0625,9991.375
35.94,7669.0625,9991.375
35.96,7669.0625,9991.375
35.980000000000004,7669.1875,9992.0
36.0,7669.625,9992.625
36.02,7669.25,9992.4375
36.04,7669.5625,9993.0
36.06,7669.75,9992.9375
36.08,7670.3125,9993.625
36.1,7670.125,9994.0625
36.12,7670.125,9995.3125
36.14,7670.625,9996.0625
36.160000000000004,7671.0625,9996.875
36.18,7671.5625,9998.0
36.2,7672.1875,9998.9375
36.22,7672.375,9999.9375
36.24,7673.4375,10001.375
36.26,7674.5625,10003.75
36.28,7675.625,10006.125
36.300000000000004,7677.125,10008.75
36.32,7678.3125,10011.1875
36.34,7679.5625,10013.625
36.36,7680.5625,10014.5
36.38,7681.3125,10016.125
36.4,7681.875,10017.5
36.42,7682.125,10018.0
36.44,7681.625,10017.9375
36.46,7682.4375,10018.5625
36.480000000000004,7683.0,10020.125
36.5,7683.875,10022.25
36.52,7684.0,10023.375
36.54,7684.1875,10023.5
36.56,7684.0,10023.4375
36.58,7683.4375,10022.25
36.6,7683.125,10021.75
36.62,7682.3125,10020.5625
36.64,7681.75,10018.875
36.660000000000004,7681.4375,10018.5
36.68,7680.5625,10017.4375
36.7,7680.1875,10017.4375
36.72,7679.875,10016.1875
36.74,7678.8125,10014.4375
36.76,7678.1875,10012.5
36.78,7677.8125,10011.875
36.800000000000004,7677.125,10010.375
36.82,7676.8125,10009.5
36.84,7676.6875,10009.5625
36.86,7676.5,10009.625
36.88,7676.5,10008.3125
36.9,7676.0,10006.5
36.92,7674.875,10004.875
36.94,7674.3125,10003.8125
36.96,7674.375,10003.8125
36.980000000000004,7673.75,10002.625
37.0,7673.75,10001.6875
37.02,7673.5625,10000.5625
37.04,7673.0625,9999.6875
37.06,7673.5625,10000.125
37.08,7674.8125,10002.4375
37.1,7676.75,10006.75
37.12,7678.6875,10010.625
37.14,7679.6875,10012.25
37.160000000000004,7679.625,10011.9375
37.18,7679.1875,10011.25
37.2,7679.8125,10011.4375
37.22,7680.3125,10012.75
37.24,7681.4375,10014.3125
37.26,7682.4375,10016.0625
37.28,7683.0625,10017.6875
37.300000000000004,7683.5625,10018.875
37.32,7685.0,10021.0625
37.34,7685.625,10022.8125
37.36,7686.4375,10024.125
37.38,7686.8125,10024.9375
37.4,7686.875,10025.375
37.42,7686.625,10025.375
37.44,7687.125,10025.875
37.46,7687.5625,10026.5
37.480000000000004,7687.6875,10026.4375
37.5,7687.3125,10025.6875
37.52,7686.875,10025.1875
37.54,7687.0625,10024.875
37.56,7687.0625,10025.25
37.58,7686.6875,10024.625
37.6,7686.25,10024.25
37.62,7686.0,10023.25
37.64,7685.75,10022.875
37.660000000000004,7686.375,10024.1875
37.68,7687.375,10026.125
37.7,7688.0,10027.75
37.72,7688.25,10028.0625
37.74,7687.75,10027.3125
37.76,7687.3125,10026.3125
37.78,7687.0,10025.25
37.800000000000004,7686.5,10023.9375
37.82,7686.0625,10022.9375
37.84,7685.4375,10021.75
37.86,7685.1875,10020.3125
37.88,7684.9375,10020.5
37.9,7685.5,10020.9375
37.92,7686.375,10022.0625
37.94,7687.5,10023.625
37.96,7688.25,10024.9375
37.980000000000004,7688.875,10026.25
38.0,7689.0625,10026.6875
38.02,7689.75,10027.1875
38.04,7689.8125,10027.9375
38.06,7690.25,10028.6875
38.08,7690.375,10030.375
38.1,7690.625,10031.0625
38.12,7690.375,10030.9375
38.14,7689.875,10029.75
38.160000000000004,7689.3125,10028.125
38.18,7688.5,10027.1875
38.2,7688.1875,10026.875
38.22,7688.5625,10026.875
38.24,7688.5625,10027.25
38.26,7688.75,10027.0625
38.28,7688.5625,10026.875
38.300000000000004,7688.5,10026.6875
38.32,7688.5625,10027.0625
38.34,7688.5625,10027.0
38.36,7688.4375,10026.875
38.38,7688.25,10026.125
38.4,7688.0625,10025.6875
38.42,7687.5,10025.0625
38.44,7687.375,10024.5
38.46,7687.625,10024.125
38.480000000000004,7687.0,10023.25
38.5,7686.1875,10020.75
38.52,7685.0,10017.875
38.54,7683.875,10015.6875
38.56,7683.375,10014.5625
38.58,7683.5625,10014.5
38.6,7683.9375,10016.0
38.62,7684.1875,10016.625
38.64,7683.9375,10016.125
38.660000000000004,7683.5,10014.9375
38.68,7683.0625,10013.375
38.7,7683.0,10013.4375
38.72,7683.5625,10014.75
38.74,7684.625,10016.5
38.76,7685.5,10018.5625
38.78,7685.9375,10020.0625
38.800000000000004,7686.1875,10020.6875
38.82,7686.5,10021.25
38.84,7687.0,10022.3125
38.86,7687.5,10023.625
38.88,7687.875,10025.0
38.9,7688.25,10025.125
38.92,7687.625,10024.625
38.94,7687.1875,10023.625
38.96,7686.25,10021.4375
38.980000000000004,7685.1875,10019.4375
39.0,7684.4375,10017.9375
39.02,7684.0,10017.3125
39.04,7683.6875,10016.3125
39.06,7682.8125,10014.3125
39.08,7681.0625,10010.5625
39.1,7678.6875,10005.75
39.12,7676.6875,10001.25
39.14,7676.0,9999.75
39.160000000000004,7676.625,10000.0625
39.18,7677.5625,10002.0625
39.2,7677.75,10003.1875
39.22,7677.875,10003.875
39.24,7677.625,10002.75
39.26,7676.6875,10001.0
39.28,7675.375,9998.625
39.300000000000004,7674.8125,9996.625
39.32,7674.25,9995.0625
39.34,7674.3125,9994.75
39.36,7674.4375,9994.1875
39.38,7674.4375,9994.3125
39.4,7674.375,9994.4375
39.42,7674.4375,9993.75
39.44,7674.3125,9994.375
39.46,7674.4375,9993.75
39.480000000000004,7673.6875,9993.4375
39.5,7673.8125,9992.0
39.52,7673.375,9988.9375
39.54,7676.125,9980.5625
39.56,7680.125,9977.0625
39.58,7681.375,9982.0
39.6,7680.375,9987.9375
39.62,7679.4375,9992.9375
39.64,7679.0625,9994.4375
39.660000000000004,7679.75,9996.8125
39.68,7680.8125,9999.75
39.7,7681.8125,10002.375
39.72,7682.625,10004.3125
39.74,7682.8125,10006.5
39.76,7685.125,10011.125
39.78,7687.375,10017.6875
39.800000000000004,7689.0,10022.625
39.82,7688.3125,10023.625
39.84,7688.4375,10025.3125
39.86,7688.1875,10026.25
39.88,7689.125,10028.0
39.9,7690.75,10031.125
39.92,7691.5625,10034.125
39.94,7692.0,10035.875
39.96,7692.4375,10038.0
39.980000000000004,7692.375,10037.4375
40.0,7691.625,10036.1875
40.02,7690.375,10034.6875
40.04,7690.25,10033.8125
40.06,7689.8125,10032.875
40.08,7688.8125,10030.25
40.1,7686.8125,10026.0625
40.12,7685.8125,10024.0625
40.14,7685.5,10024.3125
40.160000000000004,7685.6875,10024.75
40.18,7685.0,10019.5625
40.2,7688.625,10022.5625
40.22,7691.4375,10029.1875
40.24,7689.0,10027.75
40.26,7688.0,10025.875
40.28,7688.3125,10026.625
40.300000000000004,7687.5625,10024.8125
40.32,7686.3125,10020.5625
40.34,7686.3125,10019.25
40.36,7686.5,10017.5625
40.38,7689.4375,10020.1875
40.4,7694.25,10029.9375
40.42,7697.5,10037.875
40.44,7699.625,10042.75
40.46,7700.5625,10044.3125
40.480000000000004,7700.6875,10044.1875
40.5,7701.5,10044.375
40.52,7702.0625,10045.8125
40.54,7703.5625,10046.9375
40.56,7703.875,10046.75
40.58,7702.1875,10044.75
40.6,7700.375,10043.5625
40.62,7698.4375,10042.125
40.64,7697.375,10040.9375
40.660000000000004,7696.625,10040.4375
40.68,7695.5625,10039.0
40.7,7694.25,10037.3125
40.72,7693.5,10036.375
40.74,7693.25,10036.875
40.76,7693.125,10037.1875
40.78,7692.9375,10036.6875
40.800000000000004,7692.75,10036.6875
40.82,7692.75,10037.0625
40.84,7691.875,10036.5
40.86,7691.4375,10035.75
40.88,7691.0625,10035.25
40.9,7690.8125,10034.9375
40.92,7691.0625,10035.6875
40.94,7691.375,10036.1875
40.96,7691.75,10036.75
40.980000000000004,7691.375,10036.625
41.0,7691.1875,10035.75
41.02,7690.8125,10035.4375
41.04,7690.8125,10035.9375
41.06,7690.75,10036.1875
41.08,7689.9375,10035.25
41.1,7689.375,10033.8125
41.12,7688.625,10032.4375
41.14,7688.0,10031.1875
41.160000000000004,7687.5625,10030.4375
41.18,7686.5,10028.8125
41.2,7685.9375,10027.4375
41.22,7685.75,10026.5
41.24,7685.4375,10026.1875
41.26,7685.5625,10026.6875
41.28,7685.6875,10027.0625
41.300000000000004,7685.0625,10026.6875
41.32,7685.125,10025.9375
41.34,7684.75,10025.1875
41.36,7684.875,10025.25
41.38,7686.5,10028.9375
41.4,7686.9375,10029.5
41.42,7686.5,10028.6875
41.44,7686.1875,10027.875
41.46,7685.6875,10027.6875
41.480000000000004,7686.1875,10027.875
41.5,7686.0625,10027.5625
41.52,7685.75,10027.25
41.54,7685.9375,10026.8125
41.56,7686.375,10027.5625
41.58,7686.75,10028.4375
41.6,7686.8125,10029.0625
41.62,7687.0625,10029.4375
41.64,7687.5,10029.625
41.660000000000004,7687.9375,10031.25
41.68,7688.8125,10032.875
41.7,7689.375,10033.75
41.72,7688.9375,10033.0625
41.74,7688.5,10031.875
41.76,7688.375,10031.3125
41.78,7688.5625,10031.5625
41.800000000000004,7688.6875,10032.0625
41.82,7688.875,10032.625
41.84,7688.8125,10032.1875
41.86,7688.5,10031.5
41.88,7687.9375,10029.8125
41.9,7686.6875,10027.9375
41.92,7685.25,10025.0625
41.94,7684.3125,10023.0625
41.96,7684.0625,10022.625
41.980000000000004,7683.875,10022.375
42.0,7683.875,10022.625
42.02,7684.25,10023.5
42.04,7685.125,10024.5625
42.06,7685.0,10024.1875
42.08,7684.4375,10023.625
42.1,7684.25,10023.3125
42.12,7684.0625,10023.0
42.14,7684.3125,10023.0
42.160000000000004,7684.0,10022.6875
42.18,7683.1875,10021.3125
42.2,7682.375,10020.25
42.22,7682.0,10019.5
42.24,7681.25,10018.25
42.26,7680.8125,10016.875
42.28,7680.4375,10016.0
42.300000000000004,7680.875,10016.5
42.32,7681.8125,10018.375
42.34,7682.0625,10019.3125
42.36,7681.4375,10018.375
42.38,7680.25,10015.3125
42.4,7679.0,10012.375
42.42,7678.125,10010.5
42.44,7677.375,10009.5625
42.46,7677.0625,10008.75
42.480000000000004,7676.9375,10008.0625
42.5,7676.5,10007.0
42.52,7675.9375,10006.1875
42.54,7675.625,10005.0
42.56,7675.0625,10004.0
42.58,7674.75,10003.0625
42.6,7674.5625,10002.125
42.62,7674.125,10000.75
42.64,7673.5,10000.0
42.660000000000004,7673.1875,9999.25
42.68,7673.3125,9999.125
42.7,7673.0,9998.8125
42.72,7673.0625,9999.125
42.74,7673.0625,9999.0625
42.76,7672.5625,9998.9375
42.78,7672.3125,9997.875
42.800000000000004,7672.125,9997.0625
42.82,7671.9375,9995.9375
42.84,7671.5625,9995.875
42.86,7671.625,9996.0
42.88,7671.8125,9996.5625
42.9,7671.9375,9996.75
42.92,7671.5,9996.5625
42.94,7671.875,9996.3125
42.96,7671.5625,9996.75
42.980000000000004,7672.1875,9997.0
43.0,7672.0625,9997.25
43.02,7672.1875,9997.75
43.04,7672.0625,9997.5625
43.06,7671.9375,9997.6875
43.08,7672.3125,9998.3125
43.1,7672.5625,9998.6875
43.12,7672.4375,9998.375
43.14,7672.3125,9998.5625
43.160000000000004,7672.3125,9999.0
43.18,7672.125,9999.0625
43.2,7672.25,9999.4375
43.22,7672.1875,9999.5
43.24,7672.3125,9999.625
43.26,7672.6875,10000.0
43.28,7672.375,10000.125
43.300000000000004,7672.4375,10000.75
43.32,7672.375,10000.6875
43.34,7672.5,10001.25
43.36,7672.6875,10001.1875
43.38,7672.75,10001.1875
43.4,7672.75,10001.3125
43.42,7672.5,10001.4375
43.44,7672.6875,10001.75
43.46,7672.75,10002.0
43.480000000000004,7672.1875,10001.0
43.5,7672.0625,10000.3125
43.52,7671.6875,9999.6875
43.54,7671.8125,9999.5
43.56,7671.6875,9999.0625
43.58,7671.75,9999.0625
43.6,7671.8125,9999.0625
43.62,7671.5625,9998.75
43.64,7671.4375,9997.8125
43.660000000000004,7671.0625,9997.875
43.68,7671.5,9997.8125
43.7,7671.0,9997.5
43.72,7671.25,9997.75
43.74,7671.75,9998.25
43.76,7672.125,9998.5625
43.78,7671.5,9998.875
43.800000000000004,7671.875,9998.8125
43.82,7672.125,9998.6875
43.84,7671.8125,9998.75
43.86,7672.25,9999.1875
43.88,7672.25,9999.5625
43.9,7672.5625,9999.6875
43.92,7672.5625,9999.9375
43.94,7672.5625,10000.0
43.96,7672.5,10000.3125
43.980000000000004,7672.8125,10000.3125
44.0,7673.0,10000.125
44.02,7672.9375,10000.5
44.04,7673.0625,10001.25
44.06,7673.8125,10002.0
44.08,7673.875,10002.625
44.1,7674.375,10003.3125
44.12,7674.75,10003.4375
44.14,7674.875,10004.5
44.160000000000004,7675.125,10005.3125
44.18,7675.0,10005.75
44.2,7675.75,10006.3125
44.22,7676.1875,10006.9375
44.24,7676.3125,10007.1875
44.26,7676.0,10007.625
44.28,7676.8125,10008.1875
44.300000000000004,7676.75,10008.375
44.32,7677.125,10009.0
44.34,7677.125,10009.0625
44.36,7677.0625,10009.0625
44.38,7677.3125,10009.6875
44.4,7677.3125,10010.0
44.42,7677.5625,10010.125
44.44,7677.4375,10010.25
44.46,7677.0,10009.5625
44.480000000000004,7676.6875,10009.0625
44.5,7676.6875,10008.6875
44.52,7676.6875,10008.875
44.54,7676.4375,10008.1875
44.56,7676.4375,10007.9375
44.58,7676.25,10007.875
44.6,7676.1875,10007.625
44.62,7675.8125,10007.0625
44.64,7675.875,10006.875
44.660000000000004,7675.6875,10006.6875
44.68,7675.9375,10006.75
44.7,7675.8125,10006.5
44.72,7675.75,10006.3125
44.74,7675.6875,10006.1875
44.76,7675.6875,10005.75
44.78,7675.125,10005.1875
44.800000000000004,7675.0,10004.4375
44.82,7674.75,10004.75
44.84,7675.3125,10005.3125
44.86,7675.0,10005.5625
44.88,7675.0,10005.1875
44.9,7674.875,10004.625
44.92,7675.0,10004.1875
44.94,7674.6875,10003.9375
44.96,7674.4375,10003.1875
44.980000000000004,7674.5625,10003.125
45.0,7674.3125,10002.8125
45.02,7674.25,10003.0
45.04,7674.0,10002.9375
45.06,7674.0,10002.25
45.08,7673.875,10001.5625
45.1,7673.75,10001.1875
45.12,7673.5,10001.125
45.14,7673.3125,10000.75
45.160000000000004,7673.1875,10001.0
45.18,7673.25,10000.5625
45.2,7673.0625,10000.3125
45.22,7672.75,10000.1875
45.24,7672.0625,9999.6875
45.26,7672.3125,9999.25
45.28,7672.0625,9999.25
45.300000000000004,7672.1875,9999.4375
45.32,7672.1875,9998.9375
45.34,7672.0,9998.8125
45.36,7671.8125,9998.5625
45.38,7671.875,9997.875
45.4,7671.5625,9998.1875
45.42,7671.5,9998.0625
45.44,7670.6875,9998.25
45.46,7671.25,9998.0
45.480000000000004,7671.4375,9998.1875
45.5,7671.25,9998.3125
45.52,7671.625,9998.9375
45.54,7671.4375,9998.875
45.56,7671.1875,9998.9375
45.58,7671.25,9999.0
45.6,7671.25,9998.9375
45.62,7671.0625,9998.3125
45.64,7670.75,9997.375
45.660000000000004,7670.3125,9996.5
45.68,7669.9375,9995.3125
45.7,7669.5625,9994.4375
45.72,7668.8125,9993.375
45.74,7668.6875,9992.8125
45.76,7668.75,9992.3125
45.78,7668.8125,9991.875
45.800000000000004,7668.375,9991.25
45.82,7668.0,9990.5625
45.84,7667.9375,9990.0
45.86,7667.75,9989.8125
45.88,7667.6875,9988.5625
45.9,7666.8125,9988.0
45.92,7667.0,9987.8125
45.94,7666.75,9987.8125
45.96,7666.8125,9987.625
45.980000000000004,7666.375,9986.75
46.0,7666.0,9986.25
46.02,7665.9375,9986.3125
46.04,7665.8125,9985.4375
46.06,7665.625,9985.25
46.08,7665.25,9984.4375
46.1,7665.1875,9984.4375
46.12,7665.1875,9984.5625
46.14,7665.125,9984.5
46.160000000000004,7665.0,9984.3125
46.18,7665.0625,9984.6875
46.2,7664.9375,9984.625
46.22,7665.0625,9984.9375
46.24,7665.3125,9985.5625
46.26,7665.4375,9985.8125
46.28,7665.75,9985.9375
46.300000000000004,7665.3125,9986.125
46.32,7665.5,9986.0625
46.34,7665.6875,9986.5
46.36,7665.5625,9987.0625
46.38,7665.75,9987.375
46.4,7665.875,9987.875
46.42,7666.0625,9988.5
46.44,7666.0625,9988.8125
46.46,7666.375,9989.1875
46.480000000000004,7666.3125,9989.625
46.5,7666.625,9990.375
46.52,7667.0,9991.0625
46.54,7667.3125,9991.75
46.56,7667.5625,9992.5
46.58,7667.4375,9992.6875
46.6,7667.4375,9993.25
46.62,7667.875,9994.3125
46.64,7668.1875,9994.9375
46.660000000000004,7668.625,9995.5625
46.68,7668.875,9996.3125
46.7,7669.125,9997.1875
46.72,7669.25,9998.125
46.74,7669.4375,9998.25
46.76,7669.8125,9999.375
46.78,7670.0625,10000.125
46.800000000000004,7670.125,10000.3125
46.82,7670.125,10000.1875
46.84,7669.9375,10000.0625
46.86,7670.1875,9999.8125
46.88,7670.3125,10000.5
46.9,7670.8125,10000.875
46.92,7671.0625,10001.4375
46.94,7671.5625,10001.8125
46.96,7671.5625,10002.5625
46.980000000000004,7671.6875,10002.625
47.0,7672.0,10002.9375
47.02,7672.3125,10003.8125
47.04,7672.5625,10004.3125
47.06,7672.9375,10004.9375
47.08,7673.625,10006.625
47.1,7674.0,10007.4375
47.12,7674.4375,10008.1875
47.14,7674.5625,10008.6875
47.160000000000004,7674.875,10008.9375
47.18,7675.0625,10009.3125
47.2,7675.375,10010.125
47.22,7675.875,10010.875
47.24,7676.25,10011.25
47.26,7676.375,10011.625
47.28,7676.625,10012.4375
47.300000000000004,7677.0,10013.1875
47.32,7677.25,10013.8125
47.34,7677.875,10014.9375
47.36,7678.25,10015.625
47.38,7678.5625,10015.75
47.4,7678.9375,10016.3125
47.42,7678.875,10016.8125
47.44,7679.1875,10017.125
47.46,7679.25,10017.0
47.480000000000004,7679.1875,10017.3125
47.5,7679.1875,10017.4375
47.52,7679.0,10017.6875
47.54,7679.375,10017.625
47.56,7679.5625,10017.625
47.58,7679.3125,10017.75
47.6,7679.1875,10017.4375
47.62,7679.0625,10017.875
47.64,7678.875,10017.1875
47.660000000000004,7678.8125,10016.875
47.68,7678.6875,10017.3125
47.7,7678.6875,10016.8125
47.72,7678.4375,10017.125
47.74,7678.625,10016.625
47.76,7678.0,10015.8125
47.78,7677.75,10015.625
47.800000000000004,7677.5,10014.75
47.82,7677.0,10014.625
47.84,7676.9375,10013.9375
47.86,7676.4375,10012.75
47.88,7676.0625,10011.6875
47.9,7675.6875,10011.25
47.92,7675.75,10010.8125
47.94,7675.375,10009.625
47.96,7675.3125,10009.1875
47.980000000000004,7674.625,10008.1875
48.0,7674.25,10007.625
48.02,7674.5,10006.625
48.04,7673.8125,10005.8125
48.06,7673.5625,10004.625
48.08,7673.3125,10004.0625
48.1,7672.875,10003.5
48.120000000000005,7672.8125,10003.5
48.14,7672.9375,10003.875
48.160000000000004,7672.6875,10003.4375
48.18,7672.6875,10003.3125
48.2,7672.75,10002.8125
48.22,7672.5625,10002.5625
48.24,7672.3125,10002.125
48.26,7672.25,10002.0625
48.28,7672.0625,10001.6875
48.300000000000004,7671.75,10001.4375
48.32,7671.8125,10000.75
48.34,7671.9375,10000.4375
48.36,7671.5625,10000.6875
48.38,7672.0,10000.5625
48.4,7671.6875,10000.75
48.42,7671.5625,10000.625
48.44,7671.625,10000.8125
48.46,7671.625,10001.0
48.480000000000004,7671.6875,10001.125
48.5,7671.8125,10001.5
48.52,7671.75,10001.75
48.54,7671.625,10001.3125
48.56,7671.875,10001.5625
48.58,7671.9375,10001.8125
48.6,7672.0,10002.0625
48.620000000000005,7671.8125,10002.0625
48.64,7671.8125,10002.125
48.660000000000004,7671.75,10002.1875
48.68,7671.75,10002.0625
48.7,7671.5,10002.625
48.72,7671.6875,10002.5625
48.74,7672.1875,10002.8125
48.76,7672.3125,10003.0625
48.78,7672.6875,10003.5625
48.800000000000004,7672.125,10004.0
48.82,7672.375,10004.25
48.84,7672.5625,10004.4375
48.86,7672.5,10004.6875
48.88,7672.3125,10004.75
48.9,7673.0,10005.375
48.92,7672.6875,10005.75
48.94,7672.9375,10005.6875
48.96,7673.125,10005.8125
48.980000000000004,7672.875,10006.875
49.0,7673.0,10006.1875
49.02,7672.375,10005.75
49.04,7672.375,10004.9375
49.06,7671.9375,10003.875
49.08,7671.625,10003.6875
49.1,7671.375,10002.875
49.120000000000005,7671.75,10002.25
49.14,7671.8125,10002.3125
49.160000000000004,7671.5,10001.4375
49.18,7671.5,10001.4375
49.2,7671.5,10000.5625
49.22,7671.1875,10000.25
49.24,7670.8125,9999.625
49.26,7670.9375,9999.125
49.28,7670.8125,9999.0
49.300000000000004,7670.75,9999.0
49.32,7671.1875,9999.0
49.34,7671.1875,9999.3125
49.36,7671.125,9999.5
49.38,7670.9375,9998.875
49.4,7671.125,9998.8125
49.42,7670.625,9998.625
49.44,7670.9375,9998.3125
49.46,7670.8125,9998.25
49.480000000000004,7671.1875,9998.375
49.5,7671.125,9998.5
49.52,7671.5625,9998.8125
49.54,7671.5,9998.6875
49.56,7671.625,9999.4375
49.58,7672.0,9999.75
49.6,7672.0,9999.875
49.620000000000005,7672.1875,10000.5625
49.64,7672.6875,10001.1875
49.660000000000004,7672.8125,10001.6875
49.68,7673.3125,10002.5
49.7,7673.375,10003.1875
49.72,7673.625,10003.5625
49.74,7673.75,10004.25
49.76,7674.0625,10004.4375
49.78,7674.625,10005.375
49.800000000000004,7675.0,10005.75
49.82,7675.4375,10007.0625
49.84,7675.625,10007.5
49.86,7676.0625,10008.5
49.88,7676.625,10009.3125
49.9,7676.75,10009.75
49.92,7677.0625,10010.5
49.94,7677.8125,10011.5625
49.96,7678.0625,10012.3125
49.980000000000004,7677.875,10012.875
50.0,7678.4375,10013.9375
50.02,7678.75,10014.5625
50.04,7679.125,10015.5625
50.06,7679.8125,10016.625
50.08,7680.0625,10017.375
50.1,7680.6875,10018.6875
50.120000000000005,7680.75,10019.4375
50.14,7680.9375,10019.625
50.160000000000004,7681.1875,10020.375
50.18,7681.875,10021.25
50.2,7682.125,10021.5625
50.22,7681.9375,10021.8125
50.24,7681.6875,10021.4375
50.26,7681.4375,10021.1875
50.28,7682.125,10021.875
50.300000000000004,7682.625,10022.0625
50.32,7682.3125,10022.1875
50.34,7682.6875,10022.0625
50.36,7682.75,10021.4375
50.38,7682.125,10021.3125
50.4,7682.1875,10021.125
50.42,7682.3125,10021.0625
50.44,7682.5,10020.9375
50.46,7682.625,10020.5
50.480000000000004,7682.5,10020.5
50.5,7682.875,10021.3125
50.52,7683.125,10021.9375
50.54,7683.5625,10022.125
50.56,7683.3125,10021.4375
50.58,7682.875,10020.9375
50.6,7683.0,10020.75
50.620000000000005,7683.0625,10020.6875
50.64,7682.9375,10020.375
50.660000000000004,7682.375,10019.75
50.68,7682.3125,10019.375
50.7,7682.4375,10018.9375
50.72,7682.0,10018.25
50.74,7681.875,10017.875
50.76,7681.4375,10017.375
50.78,7681.375,10016.875
50.800000000000004,7681.5,10016.5
50.82,7681.375,10016.5
50.84,7681.1875,10016.25
50.86,7681.25,10016.1875
50.88,7681.3125,10015.5625
50.9,7680.8125,10015.5625
50.92,7680.75,10015.0
50.94,7680.75,10014.625
50.96,7680.5,10014.25
50.980000000000004,7680.625,10014.4375
51.0,7680.5625,10013.9375
51.02,7680.3125,10013.4375
51.04,7680.1875,10013.0625
51.06,7680.125,10012.9375
51.08,7680.125,10012.9375
51.1,7679.875,10012.1875
51.120000000000005,7679.75,10012.125
51.14,7679.9375,10011.875
51.160000000000004,7679.5,10011.75
51.18,7679.3125,10011.5625
51.2,7679.1875,10011.25
51.22,7679.25,10011.125
51.24,7678.9375,10010.25
51.26,7678.75,10009.5
51.28,7677.9375,10007.875
51.300000000000004,7677.625,10007.0625
51.32,7677.0,10005.9375
51.34,7676.75,10004.8125
51.36,7676.5625,10004.0
51.38,7676.3125,10003.125
51.4,7676.0625,10001.6875
51.42,7675.5625,10000.625
51.44,7675.25,9999.5625
51.46,7675.0,9998.6875
51.480000000000004,7674.4375,9997.75
51.5,7674.375,9997.375
51.52,7674.1875,9996.8125
51.54,7674.5,9996.5625
51.56,7674.25,9996.5
51.58,7673.6875,9995.5625
51.6,7674.0625,9995.25
51.620000000000005,7673.5625,9994.25
51.64,7673.125,9993.5625
51.660000000000004,7673.125,9993.4375
51.68,7673.125,9993.25
51.7,7673.1875,9992.875
51.72,7673.125,9992.625
51.74,7672.75,9992.1875
51.76,7673.0,9991.9375
51.78,7672.75,9991.9375
51.800000000000004,7672.875,9991.75
51.82,7672.875,9991.625
51.84,7673.0625,9991.5
51.86,7673.0625,9992.0
51.88,7673.125,9991.9375
51.9,7673.0625,9991.6875
51.92,7673.0,9991.5
51.94,7673.125,9991.625
51.96,7673.25,9991.75
51.980000000000004,7673.75,9992.1875
52.0,7673.75,9992.625
52.02,7673.625,9992.3125
52.04,7673.75,9992.8125
52.06,7673.9375,9992.625
52.08,7673.8125,9993.0
52.1,7674.0625,9993.1875
52.120000000000005,7674.5,9993.625
52.14,7674.0,9993.75
52.160000000000004,7674.375,9994.125
52.18,7674.75,9994.4375
52.2,7675.125,9995.0625
52.22,7675.25,9995.125
52.24,7675.125,9995.5
52.26,7675.4375,9996.0625
52.28,7675.5625,9996.125
52.300000000000004,7675.625,9996.25
52.32,7675.9375,9996.9375
52.34,7676.1875,9997.625
52.36,7676.125,9997.5625
52.38,7676.3125,9998.1875
52.4,7676.9375,9998.75
52.42,7676.8125,9998.8125
52.44,7677.0,9999.1875
52.46,7677.3125,9999.625
52.480000000000004,7677.25,9999.8125
52.5,7677.25,9999.5
52.52,7677.3125,9999.125
52.54,7677.1875,9998.0625
52.56,7676.625,9997.875
52.58,7676.875,9997.875
52.6,7677.1875,9997.1875
52.620000000000005,7676.8125,9997.1875
52.64,7676.875,9996.5625
52.660000000000004,7676.8125,9995.875
52.68,7676.5625,9995.6875
52.7,7676.6875,9995.375
52.72,7676.5,9994.9375
52.74,7676.5,9994.875
52.76,7676.9375,9995.3125
52.78,7677.0625,9995.75
52.800000000000004,7677.25,9995.9375
52.82,7677.5,9996.0
52.84,7677.375,9996.375
52.86,7677.8125,9996.4375
52.88,7678.0,9997.25
52.9,7678.4375,9997.5
52.92,7678.8125,9998.0
52.94,7678.5625,9997.9375
52.96,7678.75,9998.375
52.980000000000004,7679.25,9998.5625
53.0,7679.375,9999.1875
53.02,7679.6875,9999.1875
53.04,7679.8125,10000.0
53.06,7680.5625,10000.6875
53.08,7680.875,10001.4375
53.1,7681.25,10002.25
53.120000000000005,7681.625,10003.0625
53.14,7681.9375,10003.5625
53.160000000000004,7682.3125,10004.5625
53.18,7682.6875,10005.375
53.2,7683.25,10006.0625
53.22,7683.75,10007.25
53.24,7684.0,10007.6875
53.26,7684.6875,10008.75
53.28,7685.0625,10009.875
53.300000000000004,7685.75,10010.8125
53.32,7685.625,10011.25
53.34,7686.125,10011.875
53.36,7686.75,10013.5
53.38,7687.1875,10014.25
53.4,7687.8125,10015.1875
53.42,7688.5625,10016.25
53.44,7688.75,10017.1875
53.46,7689.3125,10018.3125
53.480000000000004,7689.5,10019.0625
53.5,7689.9375,10019.3125
53.52,7690.0625,10020.0625
53.54,7690.4375,10020.9375
53.56,7690.625,10021.125
53.58,7690.875,10021.8125
53.6,7690.9375,10021.9375
53.620000000000005,7690.875,10021.625
53.64,7690.75,10022.0625
53.660000000000004,7690.9375,10022.25
53.68,7690.9375,10022.375
53.7,7690.5,10021.8125
53.72,7690.75,10021.25
53.74,7690.5625,10021.1875
53.76,7690.5625,10020.875
53.78,7690.6875,10020.9375
53.800000000000004,7690.8125,10020.5
53.82,7690.6875,10019.9375
53.84,7690.625,10019.875
53.86,7690.5,10019.125
53.88,7690.3125,10018.75
53.9,7690.125,10018.1875
53.92,7690.25,10018.1875
53.94,7690.0625,10018.0
53.96,7690.375,10018.0625
53.980000000000004,7690.3125,10018.625
54.0,7690.4375,10018.1875
54.02,7690.25,10017.625
54.04,7689.875,10017.5
54.06,7689.75,10016.8125
54.08,7689.375,10016.25
54.1,7689.1875,10015.375
54.120000000000005,7689.4375,10015.3125
54.14,7689.125,10014.9375
54.160000000000004,7688.8125,10014.1875
54.18,7688.9375,10014.25
54.2,7688.9375,10013.625
54.22,7688.8125,10013.8125
54.24,7688.75,10013.3125
54.26,7688.625,10013.0625
54.28,7688.625,10013.1875
54.300000000000004,7688.625,10012.875
54.32,7688.5,10013.0625
54.34,7688.5,10012.8125
54.36,7688.3125,10012.6875
54.38,7688.375,10012.25
54.4,7688.25,10012.5625
54.42,7688.4375,10012.1875
54.44,7688.1875,10012.625
54.46,7687.9375,10012.375
54.480000000000004,7688.5625,10011.75
54.5,7688.125,10012.0
54.52,7688.125,10012.125
54.54,7688.1875,10012.0
54.56,7688.0,10012.4375
54.58,7687.875,10012.3125
54.6,7688.125,10012.3125
54.620000000000005,7688.0625,10012.4375
54.64,7688.125,10012.3125
54.660000000000004,7688.0,10012.75
54.68,7688.75,10013.25
54.7,7688.5625,10012.9375
54.72,7688.375,10013.1875
54.74,7688.375,10013.1875
54.76,7688.5,10013.125
54.78,7688.25,10013.1875
54.800000000000004,7687.9375,10012.25
54.82,7687.375,10011.3125
54.84,7687.3125,10010.125
54.86,7686.8125,10009.1875
54.88,7686.625,10008.25
54.9,7686.3125,10007.8125
54.92,7686.375,10007.3125
54.94,7686.125,10006.3125
54.96,7685.625,10005.375
54.980000000000004,7685.25,10004.8125
55.0,7685.0625,10003.875
55.02,7684.875,10003.1875
55.04,7684.4375,10002.5
55.06,7684.8125,10002.875
55.08,7685.0,10002.9375
55.1,7684.8125,10002.875
55.120000000000005,7684.5,10002.0625
55.14,7684.6875,10002.125
55.160000000000004,7684.375,10001.375
55.18,7684.3125,10001.25
55.2,7684.375,10001.125
55.22,7684.4375,10000.9375
55.24,7684.5,10000.625
55.26,7684.375,10000.4375
55.28,7684.125,10000.3125
55.300000000000004,7683.9375,10000.125
55.32,7684.125,10000.4375
55.34,7684.1875,10000.0
55.36,7684.375,10000.375
55.38,7684.625,10001.125
55.4,7685.0,10001.5625
55.42,7685.1875,10001.625
55.44,7685.125,10002.0625
55.46,7685.5,10003.0
55.480000000000004,7685.5625,10002.6875
55.5,7685.875,10003.75
55.52,7686.1875,10003.8125
55.54,7686.375,10004.625
55.56,7686.25,10005.0
55.58,7686.5625,10005.4375
55.6,7687.0,10006.125
55.620000000000005,7687.0,10006.5625
55.64,7687.375,10007.0
55.660000000000004,7687.375,10007.75
55.68,7687.75,10008.8125
55.7,7688.4375,10009.5
55.72,7688.4375,10010.4375
55.74,7688.9375,10010.875
55.76,7689.5625,10011.6875
55.78,7689.9375,10013.125
55.800000000000004,7689.875,10013.8125
55.82,7690.625,10014.875
55.84,7690.8125,10015.6875
55.86,7691.4375,10016.625
55.88,7691.75,10017.5
55.9,7692.1875,10018.3125
55.92,7692.4375,10019.125
55.94,7693.0625,10020.375
55.96,7694.0625,10021.75
55.980000000000004,7694.4375,10022.75
56.0,7694.6875,10023.5625
56.02,7695.0625,10024.3125
56.04,7695.5625,10025.25
56.06,7695.625,10026.375
56.08,7696.0625,10026.875
56.1,7696.75,10028.5
56.120000000000005,7697.0,10029.3125
56.14,7697.5625,10030.4375
56.160000000000004,7698.375,10031.75
56.18,7698.6875,10032.6875
56.2,7698.625,10033.375
56.22,7699.25,10034.25
56.24,7699.4375,10034.75
56.26,7699.8125,10035.8125
56.28,7699.75,10035.875
56.300000000000004,7699.9375,10036.3125
56.32,7700.125,10036.4375
56.34,7700.4375,10036.75
56.36,7700.625,10036.875
56.38,7700.625,10037.25
56.4,7701.0,10037.625
56.42,7701.0,10037.25
56.44,7700.625,10036.25
56.46,7700.375,10036.25
56.480000000000004,7700.375,10036.0
56.5,7700.5,10036.0625
56.52,7700.375,10036.125
56.54,7700.625,10036.5
56.56,7700.8125,10036.75
56.58,7700.8125,10036.9375
56.6,7700.6875,10036.625
56.620000000000005,7700.375,10036.0625
56.64,7700.1875,10035.875
56.660000000000004,7700.125,10035.5
56.68,7700.1875,10035.0625
56.7,7699.5625,10035.0
56.72,7699.625,10034.5625
56.74,7699.375,10034.3125
56.76,7699.125,10033.8125
56.78,7699.0625,10033.3125
56.800000000000004,7698.75,10033.3125
56.82,7698.4375,10032.5625
56.84,7698.5625,10032.5625
56.86,7698.5625,10032.25
56.88,7698.5625,10032.125
56.9,7698.125,10032.0625
56.92,7698.1875,10032.125
56.94,7697.875,10031.5625
56.96,7698.0,10031.3125
56.980000000000004,7697.75,10031.1875
57.0,7697.4375,10030.625
57.02,7697.1875,10030.375
57.04,7697.4375,10030.5625
57.06,7697.0,10030.4375
57.08,7696.875,10030.0625
57.1,7697.0625,10029.75
57.120000000000005,7696.625,10029.5625
57.14,7696.5625,10029.25
57.160000000000004,7696.6875,10029.125
57.18,7696.0625,10028.9375
57.2,7696.1875,10029.0625
57.22,7696.1875,10028.8125
57.24,7695.875,10028.6875
57.26,7695.875,10028.875
57.28,7695.875,10028.625
57.300000000000004,7695.875,10028.6875
57.32,7695.875,10028.9375
57.34,7696.25,10029.8125
57.36,7696.1875,10030.0
57.38,7696.6875,10030.0
57.4,7696.625,10029.875
57.42,7696.5625,10030.1875
57.44,7696.6875,10030.125
57.46,7696.3125,10030.25
57.480000000000004,7696.3125,10030.5
57.5,7696.5625,10031.0
57.52,7696.8125,10031.3125
57.54,7696.4375,10031.25
57.56,7696.75,10031.0625
57.58,7696.3125,10031.0
57.6,7696.0625,10030.6875
57.620000000000005,7696.0,10030.9375
57.64,7695.6875,10030.25
57.660000000000004,7695.3125,10029.1875
57.68,7694.8125,10027.875
57.7,7694.375,10027.125
57.72,7694.375,10026.125
57.74,7693.75,10025.3125
57.76,7693.625,10024.9375
57.78,7693.25,10023.875
57.800000000000004,7693.1875,10023.0
57.82,7692.8125,10022.3125
57.84,7692.3125,10021.5
57.86,7691.875,10020.5
57.88,7691.6875,10020.0625
57.9,7691.3125,10019.0625
57.92,7691.3125,10018.8125
57.94,7691.3125,10019.125
57.96,7691.1875,10018.6875
57.980000000000004,7690.9375,10018.0625
58.0,7690.5625,10017.0
58.02,7690.0,10016.375
58.04,7689.875,10015.75
58.06,7689.375,10015.375
58.08,7689.5625,10014.625
58.1,7689.1875,10014.25
58.120000000000005,7688.875,10013.625
58.14,7689.0,10013.6875
58.160000000000004,7688.5,10012.75
58.18,7688.25,10012.1875
58.2,7688.0,10012.0
58.22,7687.6875,10011.5625
58.24,7687.625,10010.8125
58.26,7687.375,10010.1875
58.28,7686.875,10009.8125
58.300000000000004,7687.1875,10009.4375
58.32,7687.5,10010.25
58.34,7687.875,10011.0
58.36,7688.125,10011.6875
58.38,7688.5625,10012.4375
58.4,7689.0,10013.3125
58.42,7689.5625,10014.0625
58.44,7689.75,10014.9375
58.46,7690.5,10016.0625
58.480000000000004,7691.125,10017.4375
58.5,7692.25,10019.125
58.52,7692.8125,10020.1875
58.54,7693.1875,10021.25
58.56,7693.9375,10021.8125
58.58,7694.3125,10023.125
58.6,7695.0625,10024.75
58.620000000000005,7695.625,10026.125
58.64,7696.3125,10027.0625
58.660000000000004,7697.0,10028.25
58.68,7697.4375,10029.375
58.7,7697.3125,10029.8125
58.72,7697.6875,10030.375
58.74,7698.375,10031.8125
58.76,7698.75,10033.0625
58.78,7699.5,10034.6875
58.800000000000004,7700.5625,10036.4375
58.82,7701.6875,10038.5625
58.84,7702.1875,10040.0625
58.86,7702.75,10040.8125
58.88,7703.125,10041.25
58.9,7703.4375,10041.1875
58.92,7703.625,10041.875
58.94,7703.875,10042.125
58.96,7704.75,10044.25
58.980000000000004,7705.5625,10046.0
59.0,7706.4375,10047.6875
59.02,7706.6875,10047.9375
59.04,7707.25,10048.5
59.06,7707.625,10048.8125
59.08,7708.125,10049.8125
59.1,7708.375,10050.1875
59.120000000000005,7708.4375,10049.9375
59.14,7708.75,10049.6875
59.160000000000004,7708.875,10049.3125
59.18,7708.9375,10049.375
59.2,7708.625,10048.1875
59.22,7708.4375,10047.1875
59.24,7708.4375,10047.0625
59.26,7707.875,10046.0
59.28,7708.0,10045.25
59.300000000000004,7707.6875,10044.1875
59.32,7707.0,10043.3125
59.34,7706.375,10041.8125
59.36,7706.25,10040.5625
59.38,7706.0,10039.1875
59.4,7705.5625,10038.625
59.42,7704.6875,10037.5
59.44,7704.375,10036.3125
59.46,7704.0625,10035.0625
59.480000000000004,7703.4375,10033.5
59.5,7702.5625,10032.8125
59.52,7702.1875,10031.5
59.54,7701.75,10031.1875
59.56,7701.125,10030.1875
59.58,7701.5,10029.375
59.6,7701.25,10028.9375
59.620000000000005,7700.875,10027.8125
59.64,7700.9375,10027.0625
59.660000000000004,7700.375,10026.5625
59.68,7700.6875,10026.625
59.7,7700.8125,10026.5
59.72,7701.0625,10027.0625
59.74,7700.9375,10028.0
59.76,7701.125,10027.8125
59.78,7701.375,10028.125
59.800000000000004,7701.6875,10028.8125
59.82,7701.8125,10029.25
59.84,7702.25,10029.625
59.86,7702.125,10030.9375
59.88,7702.75,10031.875
59.9,7703.4375,10033.125
59.92,7704.125,10034.75
59.94,7704.8125,10035.6875
59.96,7705.0625,10036.875
59.980000000000004,7705.375,10038.125
60.0,7705.875,10038.875
60.02,7706.6875,10040.3125
60.04,7707.0625,10041.875
60.06,7707.3125,10043.4375
60.08,7708.0,10043.875
60.1,7708.0625,10045.25
60.120000000000005,7708.875,10046.25
60.14,7709.5,10047.1875
60.160000000000004,7709.4375,10048.0
60.18,7710.25,10049.5625
60.2,7711.0,10051.4375
60.22,7711.5,10053.375
60.24,7712.625,10054.9375
60.26,7713.0,10056.9375
60.28,7713.75,10058.3125
60.300000000000004,7714.5625,10060.0625
60.32,7715.5625,10062.125
60.34,7716.375,10064.375
60.36,7717.125,10065.9375
60.38,7717.8125,10068.0
60.4,7718.5,10069.875
60.42,7719.125,10071.1875
60.44,7719.6875,10072.375
60.46,7720.0,10074.3125
60.480000000000004,7720.875,10076.3125
60.5,7721.5,10077.9375
60.52,7722.3125,10079.4375
60.54,7723.0,10081.25
60.56,7723.625,10082.6875
60.58,7724.3125,10084.3125
60.6,7725.0,10085.3125
60.620000000000005,7725.5625,10086.5
60.64,7726.1875,10087.125
60.660000000000004,7726.375,10087.4375
60.68,7726.625,10088.5625
60.7,7727.375,10089.4375
60.72,7727.8125,10090.4375
60.74,7728.1875,10091.375
60.76,7728.375,10092.4375
60.78,7728.875,10093.375
60.800000000000004,7729.0625,10093.9375
60.82,7729.4375,10094.1875
60.84,7729.0,10094.125
60.86,7729.75,10094.6875
60.88,7729.6875,10095.0625
60.9,7729.5625,10094.8125
60.92,7729.5625,10095.0
60.94,7729.6875,10094.6875
60.96,7729.375,10095.0625
60.980000000000004,7729.5625,10095.0
61.0,7729.4375,10094.3125
61.02,7729.625,10094.5625
61.04,7729.75,10094.8125
61.06,7729.5625,10095.125
61.08,7729.875,10095.25
61.1,7729.8125,10095.1875
61.120000000000005,7730.6875,10096.0
61.14,7730.75,10096.25
61.160000000000004,7730.875,10096.4375
61.18,7730.5,10096.375
61.2,7730.6875,10096.9375
61.22,7730.6875,10097.25
61.24,7730.8125,10097.8125
61.26,7731.25,10098.125
61.28,7731.125,10098.3125
61.300000000000004,7731.125,10098.625
61.32,7731.5,10098.875
61.34,7731.3125,10098.6875
61.36,7731.125,10098.25
61.38,7730.9375,10098.25
61.4,7730.6875,10098.125
61.42,7730.5,10097.75
61.44,7730.8125,10097.8125
61.46,7731.0625,10097.875
61.480000000000004,7731.125,10097.9375
61.5,7731.3125,10097.9375
61.52,7731.0,10098.125
61.54,7731.125,10098.0
61.56,7731.25,10097.5625
61.58,7731.375,10097.4375
61.6,7731.1875,10097.5625
61.620000000000005,7730.8125,10096.375
61.64,7730.5,10096.0625
61.660000000000004,7730.25,10094.9375
61.68,7730.0,10095.0
61.7,7729.5625,10094.125
61.72,7729.75,10094.125
61.74,7729.375,10093.4375
61.76,7729.0,10092.75
61.78,7728.875,10092.375
61.800000000000004,7728.625,10091.875
61.82,7728.5625,10091.5
61.84,7728.375,10090.75
61.86,7728.25,10090.5625
61.88,7728.125,10090.25
61.9,7727.5625,10090.0
61.92,7727.9375,10089.8125
61.940000000000005,7727.5625,10089.625
61.96,7727.125,10089.3125
61.980000000000004,7727.25,10089.0625
62.0,7727.375,10089.1875
62.02,7727.6875,10089.4375
62.04,7727.625,10089.4375
62.06,7727.3125,10089.5625
62.08,7727.75,10089.4375
62.1,7727.9375,10089.25
62.120000000000005,7727.625,10089.5
62.14,7727.6875,10089.375
62.160000000000004,7727.875,10089.5625
62.18,7727.6875,10089.6875
62.2,7727.5625,10089.4375
62.22,7727.625,10089.5
62.24,7727.625,10089.8125
62.26,7728.0,10090.1875
62.28,7728.0,10090.75
62.300000000000004,7728.3125,10091.4375
62.32,7728.375,10091.8125
62.34,7728.75,10092.25
62.36,7728.875,10092.625
62.38,7729.0,10092.8125
62.4,7728.875,10092.875
62.42,7729.0,10092.8125
62.440000000000005,7728.9375,10092.4375
62.46,7728.875,10092.5625
62.480000000000004,7729.0625,10092.8125
62.5,7728.8125,10092.1875
62.52,7728.3125,10091.75
62.54,7728.375,10091.1875
62.56,7728.25,10090.4375
62.58,7727.9375,10089.3125
62.6,7727.6875,10089.0
62.620000000000005,7727.5625,10087.8125
62.64,7727.1875,10087.25
62.660000000000004,7726.8125,10086.5625
62.68,7727.0,10086.125
62.7,7726.75,10085.6875
62.72,7727.125,10085.625
62.74,7727.1875,10085.375
62.76,7727.125,10086.1875
62.78,7727.0625,10086.3125
62.800000000000004,7727.1875,10086.375
62.82,7727.4375,10086.5
62.84,7727.5,10086.5
62.86,7727.625,10086.4375
62.88,7727.625,10086.5
62.9,7727.625,10086.4375
62.92,7727.5625,10086.75
62.940000000000005,7727.6875,10086.9375
62.96,7727.75,10087.125
62.980000000000004,7727.875,10087.5625
63.0,7728.5,10088.1875
63.02,7729.0,10089.375
63.04,7729.375,10090.375
63.06,7730.1875,10092.3125
63.08,7730.5625,10093.875
63.1,7731.5,10095.25
63.120000000000005,7732.0,10096.6875
63.14,7733.0625,10097.875
63.160000000000004,7733.8125,10099.75
63.18,7734.8125,10101.0625
63.2,7735.8125,10103.1875
63.22,7736.25,10104.375
63.24,7736.8125,10105.4375
63.26,7736.9375,10106.1875
63.28,7737.125,10106.625
63.300000000000004,7736.8125,10106.625
63.32,7736.3125,10106.25
63.34,7736.375,10106.125
63.36,7736.1875,10105.75
63.38,7735.8125,10105.5
63.4,7735.625,10105.0
63.42,7735.625,10105.125
63.440000000000005,7735.8125,10105.5
63.46,7735.4375,10104.9375
63.480000000000004,7735.5,10105.3125
63.5,7735.375,10105.8125
63.52,7735.5,10106.1875
63.54,7735.5,10106.4375
63.56,7735.5,10106.6875
63.58,7735.5,10106.9375
63.6,7735.6875,10107.375
63.620000000000005,7735.6875,10108.125
63.64,7735.6875,10108.5
63.660000000000004,7735.625,10108.3125
63.68,7735.8125,10108.5
63.7,7735.8125,10108.8125
63.72,7736.375,10109.625
63.74,7736.3125,10110.25
63.76,7736.25,10110.0
63.78,7736.125,10109.5625
63.800000000000004,7736.0625,10109.5
63.82,7735.6875,10108.6875
63.84,7735.5625,10108.0
63.86,7735.625,10107.8125
63.88,7735.3125,10107.5
63.9,7735.375,10107.375
63.92,7735.5,10106.6875
63.940000000000005,7735.4375,10106.4375
63.96,7734.5625,10105.5
63.980000000000004,7734.375,10104.8125
64.0,7734.25,10104.4375
64.02,7734.0625,10104.5625
64.04,7734.5,10105.0
64.06,7734.8125,10105.375
64.08,7734.6875,10105.0625
64.1,7734.625,10104.5
64.12,7734.1875,10104.125
64.14,7734.3125,10105.0625
64.16,7734.625,10104.8125
64.18,7734.75,10105.0625
64.2,7734.1875,10104.1875
64.22,7734.25,10104.4375
64.24,7734.375,10103.6875
64.26,7734.375,10104.125
64.28,7734.25,10103.9375
64.3,7734.0625,10104.125
64.32000000000001,7734.1875,10104.3125
64.34,7734.3125,10104.6875
64.36,7734.5625,10104.875
64.38,7734.5,10104.625
64.4,7734.8125,10105.0625
64.42,7734.5625,10105.0
64.44,7734.125,10105.0625
64.46000000000001,7734.0625,10104.25
64.48,7734.1875,10104.5625
64.5,7734.125,10104.6875
64.52,7734.1875,10104.4375
64.54,7734.375,10104.6875
64.56,7734.1875,10104.6875
64.58,7734.3125,10105.3125
64.6,7734.25,10105.25
64.62,7734.4375,10105.3125
64.64,7734.25,10105.4375
64.66,7734.3125,10105.4375
64.68,7734.5,10105.75
64.7,7734.5625,10105.875
64.72,7734.375,10106.375
64.74,7734.625,10106.625
64.76,7734.125,10106.75
64.78,7734.75,10107.1875
64.8,7734.25,10107.25
64.82000000000001,7734.75,10107.4375
64.84,7734.625,10107.5
64.86,7734.8125,10107.875
64.88,7735.0625,10108.25
64.9,7735.125,10108.625
64.92,7735.0625,10108.75
64.94,7735.1875,10109.0625
64.96000000000001,7735.375,10109.8125
64.98,7735.9375,10110.5
65.0,7735.6875,10110.4375
65.02,7735.875,10111.0625
65.04,7735.75,10111.625
65.06,7735.625,10111.4375
65.08,7736.0,10111.8125
65.1,7735.875,10111.625
65.12,7735.5625,10111.125
65.14,7735.4375,10110.125
65.16,7735.3125,10109.4375
65.18,7734.875,10108.5625
65.2,7735.25,10108.8125
65.22,7735.0,10108.875
65.24,7734.875,10108.75
65.26,7734.9375,10108.1875
65.28,7734.625,10107.5
65.3,7734.625,10107.375
65.32000000000001,7734.8125,10107.4375
65.34,7734.625,10107.125
65.36,7734.4375,10106.875
65.38,7734.1875,10106.4375
65.4,7734.25,10107.0
65.42,7734.5625,10107.0625
65.44,7734.4375,10107.125
65.46000000000001,7734.3125,10106.9375
65.48,7734.375,10107.125
65.5,7734.5625,10107.1875
65.52,7734.4375,10107.1875
65.54,7734.5625,10107.5
65.56,7734.6875,10107.75
65.58,7734.5,10107.8125
65.6,7734.5625,10107.875
65.62,7734.75,10107.8125
65.64,7734.6875,10108.25
65.66,7735.0625,10108.625
65.68,7735.375,10109.8125
65.7,7735.6875,10110.375
65.72,7736.0625,10111.375
65.74,7736.4375,10111.75
65.76,7736.375,10112.25
65.78,7737.0,10112.75
65.8,7737.375,10113.9375
65.82000000000001,7737.125,10113.9375
65.84,7737.375,10114.9375
65.86,7737.4375,10115.0625
65.88,7737.3125,10115.0625
65.9,7737.625,10115.0625
65.92,7737.5,10115.8125
65.94,7737.25,10115.625
65.96000000000001,7737.75,10116.125
65.98,7737.375,10115.9375
66.0,7737.8125,10116.75
66.02,7737.9375,10117.0
66.04,7737.9375,10117.0625
66.06,7737.875,10116.875
66.08,7737.75,10116.75
66.1,7737.625,10116.75
66.12,7737.5,10116.4375
66.14,7737.3125,10116.25
66.16,7737.6875,10116.5625
66.18,7737.75,10117.1875
66.2,7737.9375,10118.5625
66.22,7737.9375,10118.625
66.24,7738.0625,10118.5625
66.26,7737.4375,10117.0
66.28,7737.0625,10115.875
66.3,7736.8125,10115.0625
66.32000000000001,7736.9375,10115.5
66.34,7736.875,10116.75
66.36,7737.375,10117.875
66.38,7736.6875,10116.4375
66.4,7736.3125,10115.4375
66.42,7736.0625,10114.6875
66.44,7735.8125,10114.5625
66.46000000000001,7735.4375,10113.875
66.48,7735.125,10113.0
66.5,7734.5625,10112.0625
66.52,7734.5625,10111.125
66.54,7734.5,10110.375
66.56,7734.0625,10110.125
66.58,7734.0625,10109.5625
66.6,7733.6875,10109.3125
66.62,7733.625,10109.6875
66.64,7733.1875,10108.125
66.66,7732.3125,10106.1875
66.68,7731.6875,10103.8125
66.7,7730.75,10102.0625
66.72,7730.5,10101.875
66.74,7730.3125,10101.875
66.76,7729.9375,10102.375
66.78,7729.6875,10101.25
66.8,7728.4375,10099.0625
66.82000000000001,7727.75,10096.875
66.84,7727.5,10095.875
66.86,7726.8125,10094.5625
66.88,7725.875,10093.0
66.9,7724.8125,10090.75
66.92,7724.5,10090.5
66.94,7724.6875,10090.9375
66.96000000000001,7725.5625,10092.3125
66.98,7726.125,10093.875
67.0,7726.1875,10094.1875
67.02,7726.125,10093.875
67.04,7725.8125,10093.375
67.06,7725.25,10092.3125
67.08,7725.0,10092.375
67.1,7724.9375,10091.6875
67.12,7724.25,10090.8125
67.14,7724.5,10090.5
67.16,7724.3125,10090.625
67.18,7724.625,10091.125
67.2,7724.6875,10091.3125
67.22,7724.875,10091.875
67.24,7724.75,10092.125
67.26,7724.75,10092.0
67.28,7724.8125,10092.0625
67.3,7725.0,10092.6875
67.32000000000001,7724.5625,10092.25
67.34,7724.625,10092.25
67.36,7724.8125,10092.5
67.38,7724.5625,10092.8125
67.4,7724.4375,10092.3125
67.42,7724.3125,10092.625
67.44,7724.25,10092.25
67.46000000000001,7724.625,10092.9375
67.48,7724.3125,10093.125
67.5,7723.9375,10092.0625
67.52,7723.875,10091.8125
67.54,7723.3125,10091.75
67.56,7723.5625,10091.6875
67.58,7723.3125,10091.1875
67.6,7722.9375,10090.5
67.62,7722.625,10089.3125
67.64,7722.125,10088.3125
67.66,7722.125,10087.9375
67.68,7722.375,10087.625
67.7,7721.75,10086.8125
67.72,7721.5625,10085.9375
67.74,7721.3125,10085.0
67.76,7720.75,10084.375
67.78,7720.75,10084.125
67.8,7720.6875,10083.75
67.82000000000001,7721.375,10083.5
67.84,7721.25,10084.0
67.86,7722.1875,10085.4375
67.88,7722.6875,10086.625
67.9,7723.0,10087.0
67.92,7722.8125,10087.1875
67.94,7723.3125,10087.125
67.96000000000001,7723.6875,10088.1875
67.98,7724.125,10089.1875
68.0,7725.0625,10090.5625
68.02,7725.8125,10092.9375
68.04,7726.75,10095.0
68.06,7728.375,10097.125
68.08,7729.25,10099.4375
68.1,7730.5625,10101.5
68.12,7731.4375,10103.8125
68.14,7732.375,10105.4375
68.16,7733.1875,10107.0
68.18,7734.0625,10108.5
68.2,7734.4375,10109.5625
68.22,7735.375,10110.875
68.24,7736.1875,10112.25
68.26,7737.0,10113.8125
68.28,7737.125,10114.625
68.3,7737.5625,10115.9375
68.32000000000001,7738.1875,10117.625
68.34,7739.0625,10119.25
68.36,7739.1875,10120.6875
68.38,7739.875,10122.75
68.4,7741.0,10125.4375
68.42,7742.1875,10128.0625
68.44,7742.9375,10130.5
68.46000000000001,7743.9375,10132.6875
68.48,7744.8125,10134.3125
68.5,7745.1875,10135.9375
68.52,7746.125,10137.5
68.54,7747.0625,10139.25
68.56,7747.9375,10140.875
68.58,7749.0625,10143.625
68.60000000000001,7750.0625,10145.8125
68.62,7750.75,10147.3125
68.64,7751.5,10149.0625
68.66,7751.75,10150.6875
68.68,7752.875,10152.75
68.7,7753.125,10154.375
68.72,7753.375,10155.6875
68.74,7754.0625,10157.125
68.76,7754.1875,10157.4375
68.78,7754.875,10158.0625
68.8,7755.25,10159.3125
68.82000000000001,7755.3125,10160.0
68.84,7755.4375,10160.5625
68.86,7755.1875,10160.75
68.88,7755.5,10160.625
68.9,7755.4375,10160.0625
68.92,7755.0625,10160.0
68.94,7755.1875,10160.375
68.96000000000001,7755.6875,10160.875
68.98,7756.0625,10162.25
69.0,7756.8125,10163.5625
69.02,7757.3125,10164.75
69.04,7757.3125,10164.9375
69.06,7757.125,10164.625
69.08,7756.8125,10164.1875
69.10000000000001,7756.4375,10164.125
69.12,7755.875,10163.8125
69.14,7756.1875,10164.125
69.16,7755.875,10164.1875
69.18,7755.5625,10164.4375
69.2,7755.5625,10164.625
69.22,7755.5,10164.25
69.24,7755.125,10164.4375
69.26,7755.125,10164.375
69.28,7755.5625,10165.1875
69.3,7755.625,10165.9375
69.32000000000001,7755.375,10166.0625
69.34,7755.0625,10165.8125
69.36,7755.125,10165.1875
69.38,7755.25,10165.8125
69.4,7755.4375,10166.375
69.42,7756.0625,10167.8125
69.44,7756.25,10168.5625
69.46000000000001,7756.3125,10168.9375
69.48,7756.0,10168.0
69.5,7755.8125,10167.5625
69.52,7755.625,10167.8125
69.54,7755.8125,10168.8125
69.56,7755.875,10168.9375
69.58,7756.125,10168.875
69.60000000000001,7755.8125,10168.6875
69.62,7756.125,10168.6875
69.64,7755.8125,10169.3125
69.66,7755.9375,10169.4375
69.68,7755.625,10168.4375
69.7,7755.25,10168.25
69.72,7754.8125,10166.875
69.74,7754.625,10166.125
69.76,7754.625,10165.625
69.78,7754.625,10165.0
69.8,7754.5625,10165.125
69.82000000000001,7754.375,10165.5625
69.84,7754.4375,10164.8125
69.86,7753.8125,10163.875
69.88,7753.5625,10162.6875
69.9,7753.125,10161.75
69.92,7752.6875,10161.1875
69.94,7752.25,10160.8125
69.96000000000001,7752.25,10160.125
69.98,7751.9375,10159.5625
70.0,7751.5,10158.1875
70.02,7750.875,10156.9375
70.04,7750.9375,10156.6875
70.06,7751.0625,10157.125
70.08,7751.4375,10158.125
70.10000000000001,7751.8125,10157.9375
70.12,7751.625,10158.5
70.14,7751.8125,10158.75
70.16,7751.75,10158.6875
70.18,7751.875,10158.625
70.2,7751.5625,10158.5
70.22,7751.6875,10159.3125
70.24,7751.75,10160.0
70.26,7752.25,10160.875
70.28,7752.0625,10161.0625
70.3,7752.125,10160.5625
70.32000000000001,7751.75,10160.375
70.34,7751.875,10160.875
70.36,7752.5,10161.3125
70.38,7752.1875,10161.5
70.4,7752.1875,10161.75
70.42,7751.9375,10162.0
70.44,7752.25,10161.875
70.46000000000001,7752.0625,10161.75
70.48,7752.125,10161.5625
70.5,7752.1875,10162.4375
70.52,7752.5625,10163.4375
70.54,7753.125,10163.75
70.56,7752.875,10164.0
70.58,7752.9375,10164.3125
70.60000000000001,7753.0,10164.125
70.62,7753.125,10164.375
70.64,7753.625,10165.375
70.66,7753.75,10166.875
70.68,7754.4375,10167.6875
70.7,7754.5,10167.6875
70.72,7754.1875,10167.75
70.74,7754.4375,10167.6875
70.76,7754.5,10167.6875
70.78,7754.5625,10167.5625
70.8,7754.3125,10167.5625
70.82000000000001,7754.3125,10167.5625
70.84,7754.25,10167.25
70.86,7754.125,10166.6875
70.88,7754.4375,10166.125
70.9,7754.0625,10166.125
70.92,7754.0,10166.1875
70.94,7754.4375,10166.625
70.96000000000001,7754.75,10166.6875
70.98,7754.375,10166.125
71.0,7754.3125,10165.625
71.02,7754.1875,10166.0625
71.04,7754.1875,10165.875
71.06,7754.5,10166.5625
71.08,7754.8125,10167.1875
71.10000000000001,7755.0625,10167.3125
71.12,7755.0625,10166.5
71.14,7754.625,10165.9375
71.16,7754.8125,10165.5625
71.18,7755.1875,10165.9375
71.2,7755.3125,10166.125
71.22,7755.625,10166.5625
71.24,7756.0,10167.0
71.26,7756.0,10167.25
71.28,7755.9375,10167.3125
71.3,7756.25,10167.75
71.32000000000001,7756.3125,10168.3125
71.34,7756.3125,10167.6875
71.36,7756.375,10167.875
71.38,7756.5,10168.1875
71.4,7756.625,10168.8125
71.42,7757.0625,10169.25
71.44,7757.625,10169.9375
71.46000000000001,7757.6875,10170.75
71.48,7757.6875,10171.0
71.5,7758.0,10170.9375
71.52,7758.25,10171.375
71.54,7758.0,10171.3125
71.56,7758.1875,10171.125
71.58,7758.3125,10171.0
71.60000000000001,7758.3125,10171.125
71.62,7758.5625,10172.0625
71.64,7759.1875,10171.75
71.66,7759.0,10172.0
71.68,7758.9375,10172.8125
71.7,7759.375,10173.625
71.72,7759.8125,10174.75
71.74,7760.3125,10175.8125
71.76,7760.5625,10176.0
71.78,7760.5,10175.0625
71.8,7759.75,10174.875
71.82000000000001,7760.875,10175.5
71.84,7761.0625,10176.6875
71.86,7761.9375,10178.0625
71.88,7761.875,10178.9375
71.9,7762.5,10179.4375
71.92,7762.5,10178.8125
71.94,7762.25,10178.125
71.96000000000001,7762.1875,10177.5625
71.98,7761.75,10176.0
72.0,7761.1875,10174.9375
72.02,7760.625,10174.4375
72.04,7760.4375,10173.75
72.06,7760.5,10174.0625
72.08,7760.75,10174.4375
72.10000000000001,7761.25,10174.875
72.12,7761.125,10174.375
72.14,7760.6875,10173.625
72.16,7760.4375,10172.6875
72.18,7760.0,10172.5
72.2,7760.5,10173.0625
72.22,7760.5625,10173.625
72.24,7760.5,10173.3125
72.26,7760.0,10172.4375
72.28,7759.4375,10171.25
72.3,7758.875,10171.0625
72.32000000000001,7759.0,10171.5
72.34,7759.1875,10171.875
72.36,7759.4375,10171.75
72.38,7759.0,10170.6875
72.4,7758.5625,10169.6875
72.42,7758.0625,10168.625
72.44,7757.9375,10168.5
72.46000000000001,7757.5625,10168.25
72.48,7757.625,10168.375
72.5,7757.4375,10168.6875
72.52,7757.6875,10168.9375
72.54,7757.5,10169.4375
72.56,7757.3125,10169.3125
72.58,7757.125,10169.125
72.60000000000001,7756.4375,10168.875
72.62,7756.3125,10168.3125
72.64,7756.4375,10169.0
72.66,7756.6875,10170.0625
72.68,7757.625,10171.6875
72.7,7757.4375,10172.0
72.72,7757.1875,10172.25
72.74,7756.9375,10171.5625
72.76,7756.875,10171.5
72.78,7756.6875,10172.125
72.8,7757.3125,10173.6875
72.82000000000001,7758.3125,10175.25
72.84,7758.25,10175.625
72.86,7757.6875,10173.875
72.88,7756.625,10171.375
72.9,7756.125,10169.375
72.92,7755.8125,10169.375
72.94,7755.625,10169.4375
72.96000000000001,7755.625,10169.6875
72.98,7755.8125,10169.0625
73.0,7755.375,10168.4375
73.02,7755.0625,10167.375
73.04,7754.625,10166.625
73.06,7754.3125,10165.9375
73.08,7754.25,10165.8125
73.10000000000001,7754.6875,10166.0
73.12,7754.5625,10165.625
73.14,7753.8125,10165.0625
73.16,7753.75,10164.6875
73.18,7753.5,10164.5625
73.2,7752.9375,10163.75
73.22,7753.0625,10163.375
73.24,7753.0,10163.125
73.26,7753.0625,10163.625
73.28,7753.0,10163.0
73.3,7752.9375,10163.0
73.32000000000001,7752.625,10163.375
73.34,7752.5,10163.1875
73.36,7753.0,10163.1875
73.38,7752.9375,10163.5625
73.4,7752.9375,10163.3125
73.42,7752.6875,10163.875
73.44,7752.75,10164.0
73.46000000000001,7752.8125,10164.1875
73.48,7753.1875,10164.375
73.5,7752.9375,10163.9375
73.52,7753.0,10164.125
73.54,7752.625,10164.25
73.56,7752.625,10164.1875
73.58,7752.9375,10164.5625
73.60000000000001,7752.8125,10164.625
73.62,7752.9375,10164.8125
73.64,7752.75,10164.5
73.66,7752.5625,10164.5625
73.68,7752.5625,10165.0625
73.7,7752.625,10165.375
73.72,7752.6875,10165.6875
73.74,7752.5625,10165.375
73.76,7752.0,10165.25
73.78,7751.8125,10165.25
73.8,7751.875,10165.6875
73.82000000000001,7752.125,10166.6875
73.84,7752.0625,10167.125
73.86,7752.0,10167.5
73.88,7752.25,10167.3125
73.9,7751.375,10166.625
73.92,7750.9375,10165.375
73.94,7749.9375,10164.6875
73.96000000000001,7749.1875,10163.125
73.98,7748.6875,10161.5625
74.0,7747.0625,10159.0
74.02,7745.75,10155.5
74.04,7744.125,10151.25
74.06,7742.5,10146.6875
74.08,7741.3125,10142.9375
74.10000000000001,7740.0625,10140.625
74.12,7739.375,10138.1875
74.14,7738.375,10135.4375
74.16,7737.3125,10132.4375
74.18,7736.0,10129.25
74.2,7735.0625,10126.5625
74.22,7734.0,10124.25
74.24,7733.1875,10121.375
74.26,7732.0625,10117.9375
74.28,7730.6875,10114.3125
74.3,7729.8125,10111.375
74.32000000000001,7728.625,10108.625
74.34,7728.125,10106.75
74.36,7727.6875,10106.4375
74.38,7727.3125,10105.5625
74.4,7726.6875,10104.0
74.42,7725.75,10102.0625
74.44,7725.0625,10099.8125
74.46000000000001,7723.875,10097.25
74.48,7723.3125,10095.9375
74.5,7722.75,10094.875
74.52,7722.4375,10094.1875
74.54,7721.6875,10092.9375
74.56,7721.3125,10091.0
74.58,7720.75,10089.25
74.60000000000001,7719.875,10087.3125
74.62,7719.6875,10086.75
74.64,7719.8125,10087.0
74.66,7719.625,10086.75
74.68,7720.0625,10087.3125
74.7,7720.3125,10088.1875
74.72,7720.8125,10088.6875
74.74,7720.5625,10088.6875
74.76,7720.4375,10088.375
74.78,7720.5625,10087.75
74.8,7720.25,10087.125
74.82000000000001,7719.8125,10086.9375
74.84,7719.5625,10087.0
74.86,7719.8125,10086.5
74.88,7719.8125,10086.875
74.9,7719.8125,10086.6875
74.92,7719.6875,10087.0625
74.94,7719.6875,10087.125
74.96000000000001,7719.625,10087.0
74.98,7719.9375,10086.8125
75.0,7719.5,10086.1875
75.02,7719.75,10086.5625
75.04,7719.6875,10087.25
75.06,7719.6875,10087.625
75.08,7719.5625,10087.875
75.10000000000001,7719.6875,10088.25
75.12,7719.5625,10088.5625
75.14,7719.75,10088.625
75.16,7719.8125,10089.0625
75.18,7720.0,10089.25
75.2,7720.25,10089.9375
75.22,7720.5,10090.6875
75.24,7720.625,10091.375
75.26,7720.25,10091.5
75.28,7720.75,10092.25
75.3,7720.875,10092.875
75.32000000000001,7720.75,10093.3125
75.34,7720.875,10092.9375
75.36,7720.625,10092.3125
75.38,7720.625,10091.9375
75.4,7720.625,10091.8125
75.42,7720.75,10092.3125
75.44,7720.5,10092.1875
75.46000000000001,7720.8125,10091.9375
75.48,7720.875,10092.0625
75.5,7720.875,10091.9375
75.52,7720.8125,10091.625
75.54,7720.5,10091.375
75.56,7720.8125,10091.4375
75.58,7720.875,10091.75
75.60000000000001,7721.125,10091.8125
75.62,7721.125,10091.875
75.64,7721.375,10092.25
75.66,7721.25,10092.375
75.68,7721.4375,10092.0625
75.7,7721.25,10092.5
75.72,7721.3125,10092.6875
75.74,7721.4375,10092.625
75.76,7721.625,10092.75
75.78,7721.375,10093.1875
75.8,7721.875,10093.5625
75.82000000000001,7722.0625,10093.6875
75.84,7722.125,10094.25
75.86,7722.1875,10094.75
75.88,7722.3125,10094.875
75.9,7722.375,10095.125
75.92,7722.6875,10095.5625
75.94,7722.5625,10095.6875
75.96000000000001,7723.0625,10096.25
75.98,7723.3125,10096.3125
76.0,7723.375,10096.9375
76.02,7723.75,10097.375
76.04,7723.875,10097.75
76.06,7724.1875,10098.3125
76.08,7724.5625,10099.0
76.10000000000001,7724.75,10099.625
76.12,7724.625,10100.375
76.14,7724.9375,10100.875
76.16,7725.3125,10101.0625
76.18,7725.4375,10101.75
76.2,7725.9375,10102.5
76.22,7725.875,10103.0625
76.24,7726.3125,10103.6875
76.26,7726.5,10104.0
76.28,7726.3125,10104.4375
76.3,7726.875,10105.1875
76.32000000000001,7727.0625,10106.0625
76.34,7727.6875,10106.875
76.36,7727.75,10107.4375
76.38,7727.875,10108.4375
76.4,7727.8125,10108.25
76.42,7728.1875,10109.25
76.44,7728.375,10108.9375
76.46000000000001,7728.1875,10109.0
76.48,7728.0625,10109.125
76.5,7728.1875,10109.125
76.52,7728.0625,10108.5
76.54,7727.9375,10108.1875
76.56,7728.3125,10108.625
76.58,7728.5625,10108.625
76.60000000000001,7728.4375,10108.5625
76.62,7728.25,10108.125
76.64,7728.25,10107.875
76.66,7728.1875,10107.375
76.68,7727.9375,10106.875
76.7,7727.875,10106.6875
76.72,7727.875,10106.5625
76.74,7728.125,10106.75
76.76,7727.8125,10107.0
76.78,7728.375,10107.75
76.8,7728.0625,10107.1875
76.82000000000001,7728.0,10106.5625
76.84,7727.5,10106.25
76.86,7727.375,10106.3125
76.88,7727.0625,10105.75
76.9,7726.875,10105.1875
76.92,7727.125,10105.0625
76.94,7726.875,10104.5625
76.96000000000001,7726.75,10104.25
76.98,7726.5,10103.8125
77.0,7726.5,10103.3125
77.02,7726.375,10103.5
77.04,7726.375,10103.6875
77.06,7725.875,10103.25
77.08,7726.0625,10102.9375
77.10000000000001,7725.9375,10102.6875
77.12,7725.875,10102.4375
77.14,7725.5625,10102.125
77.16,7725.3125,10102.0625
77.18,7724.75,10101.5625
77.2,7724.6875,10101.625
77.22,7724.8125,10101.1875
77.24,7724.3125,10100.625
77.26,7724.4375,10100.375
77.28,7724.25,10100.125
77.3,7724.3125,10100.1875
77.32000000000001,7723.8125,10099.875
77.34,7723.8125,10100.1875
77.36,7723.4375,10099.0625
77.38,7723.4375,10098.4375
77.4,7723.0625,10098.5
77.42,7722.6875,10097.9375
77.44,7722.5,10097.3125
77.46000000000001,7721.75,10096.3125
77.48,7721.6875,10094.9375
77.5,7721.1875,10093.8125
77.52,7720.875,10092.6875
77.54,7720.4375,10091.875
77.56,7720.3125,10091.375
77.58,7720.125,10090.5625
77.60000000000001,7719.625,10089.125
77.62,7719.5,10088.5
77.64,7719.1875,10087.5
77.66,7718.5,10086.5625
77.68,7718.3125,10085.9375
77.7,7717.75,10085.5
77.72,7718.125,10085.5
77.74,7718.0625,10085.4375
77.76,7717.625,10084.75
77.78,7717.625,10084.4375
77.8,7717.0,10083.3125
77.82000000000001,7717.125,10083.1875
77.84,7716.6875,10082.375
77.86,7716.5,10081.625
77.88,7716.25,10081.125
77.9,7716.125,10080.9375
77.92,7716.125,10080.75
77.94,7715.875,10080.25
77.96000000000001,7715.1875,10079.5
77.98,7715.25,10078.875
78.0,7714.9375,10078.9375
78.02,7714.9375,10079.0
78.04,7714.6875,10078.4375
78.06,7715.0,10078.5
78.08,7715.0,10078.5
78.10000000000001,7714.6875,10078.4375
78.12,7714.625,10078.3125
78.14,7714.5,10078.25
78.16,7714.3125,10078.5
78.18,7714.5625,10078.0625
78.2,7714.375,10078.5625
78.22,7714.75,10078.375
78.24,7714.5625,10078.5625
78.26,7714.375,10078.4375
78.28,7714.4375,10078.875
78.3,7714.625,10078.75
78.32000000000001,7714.625,10078.75
78.34,7714.375,10078.25
78.36,7714.625,10078.75
78.38,7714.3125,10078.8125
78.4,7714.375,10079.0625
78.42,7714.4375,10079.375
78.44,7714.5625,10079.4375
78.46000000000001,7714.8125,10079.375
78.48,7714.4375,10079.6875
78.5,7714.8125,10079.8125
78.52,7714.875,10079.9375
78.54,7714.5,10079.875
78.56,7714.125,10079.5
78.58,7714.0625,10078.4375
78.60000000000001,7713.8125,10077.6875
78.62,7713.75,10076.75
78.64,7713.1875,10076.1875
78.66,7712.8125,10075.25
78.68,7712.75,10074.1875
78.7,7712.5625,10073.5625
78.72,7712.3125,10072.375
78.74,7711.9375,10071.5625
78.76,7711.6875,10070.5
78.78,7711.25,10069.875
78.8,7711.0,10069.25
78.82000000000001,7710.9375,10068.625
78.84,7710.5,10068.0
78.86,7710.25,10068.0
78.88,7710.5625,10067.6875
78.9,7710.0,10066.75
78.92,7709.875,10066.4375
78.94,7709.5625,10066.0625
78.96000000000001,7709.375,10065.5
78.98,7709.375,10064.8125
79.0,7709.1875,10064.4375
79.02,7708.8125,10063.75
79.04,7708.375,10063.1875
79.06,7708.3125,10062.8125
79.08,7708.0625,10063.0625
79.10000000000001,7708.3125,10062.5625
79.12,7708.125,10061.9375
79.14,7707.875,10062.5
79.16,7708.1875,10062.5
79.18,7708.625,10062.8125
79.2,7708.375,10062.875
79.22,7708.375,10062.9375
79.24,7708.875,10063.1875
79.26,7708.8125,10063.375
79.28,7709.1875,10064.125
79.3,7709.1875,10064.1875
79.32000000000001,7709.375,10064.6875
79.34,7709.875,10065.1875
79.36,7709.625,10065.5
79.38,7709.5625,10065.875
79.4,7709.6875,10066.25
79.42,7710.1875,10066.5625
79.44,7710.0625,10067.0
79.46000000000001,7710.375,10067.1875
79.48,7710.75,10067.625
79.5,7710.9375,10068.875
79.52,7711.3125,10069.4375
79.54,7711.125,10069.875
79.56,7711.75,10070.4375
79.58,7711.8125,10071.25
79.60000000000001,7712.0625,10071.4375
79.62,7712.25,10071.875
79.64,7712.75,10072.875
79.66,7712.9375,10073.75
79.68,7713.1875,10074.625
79.7,7713.5625,10075.25
79.72,7713.9375,10076.25
79.74,7714.5,10076.9375
79.76,7714.875,10077.625
79.78,7715.4375,10079.125
79.8,7715.4375,10079.25
79.82000000000001,7715.75,10080.3125
79.84,7716.125,10080.75
79.86,7716.0625,10081.25
79.88,7716.5,10081.8125
79.9,7716.625,10081.75
79.92,7716.4375,10081.5
79.94,7716.4375,10081.1875
79.96000000000001,7716.5,10081.0625
79.98,7716.25,10081.125
80.0,7716.625,10081.1875
80.02,7716.8125,10080.875
80.04,7717.1875,10081.0625
80.06,7717.1875,10081.0
80.08,7716.875,10080.625
80.10000000000001,7717.1875,10080.625
80.12,7716.5,10080.25
80.14,7717.25,10081.0625
80.16,7717.5625,10081.5
80.18,7717.625,10081.75
80.2,7717.875,10082.4375
80.22,7718.1875,10082.875
80.24,7718.0,10082.625
80.26,7717.9375,10082.5625
80.28,7718.625,10083.0
80.3,7718.8125,10083.25
80.32000000000001,7718.75,10083.625
80.34,7718.875,10083.6875
80.36,7719.1875,10083.9375
80.38,7719.0625,10084.125
80.4,7719.25,10084.6875
80.42,7719.6875,10084.8125
80.44,7719.75,10084.875
80.46000000000001,7719.8125,10085.1875
80.48,7720.375,10085.5625
80.5,7720.0,10086.1875
80.52,7720.125,10086.5625
80.54,7720.5625,10086.5625
80.56,7720.625,10086.5625
80.58,7720.5,10086.75
80.60000000000001,7720.5625,10087.0
80.62,7720.875,10087.5625
80.64,7720.6875,10087.5
80.66,7720.5625,10087.8125
80.68,7721.0625,10088.25
80.7,7720.8125,10088.0
80.72,7720.875,10088.375
80.74,7720.875,10088.0
80.76,7720.5625,10088.1875
80.78,7720.625,10087.9375
80.8,7720.75,10088.4375
80.82000000000001,7720.375,10087.9375
80.84,7720.125,10087.875
80.86,7720.4375,10087.8125
80.88,7719.875,10087.625
80.9,7719.8125,10086.875
80.92,7719.3125,10086.0625
80.94,7719.3125,10086.125
80.96000000000001,7719.0,10085.4375
80.98,7718.8125,10085.375
81.0,7718.75,10084.3125
81.02,7718.25,10083.25
81.04,7718.125,10082.25
81.06,7717.9375,10081.5625
81.08,7717.4375,10081.0625
81.10000000000001,7717.375,10080.1875
81.12,7717.25,10079.3125
81.14,7716.9375,10078.0625
81.16,7716.25,10077.375
81.18,7716.5625,10076.9375
81.2,7715.875,10076.0
81.22,7715.8125,10075.6875
81.24,7715.4375,10074.8125
81.26,7715.5,10074.6875
81.28,7715.1875,10074.125
81.3,7715.0625,10073.9375
81.32000000000001,7715.0,10073.4375
81.34,7714.9375,10072.75
81.36,7714.375,10072.3125
81.38,7714.4375,10072.1875
81.4,7714.0,10071.8125
81.42,7714.0625,10070.8125
81.44,7713.875,10070.5625
81.46000000000001,7713.5,10070.375
81.48,7713.3125,10070.0625
81.5,7713.375,10070.0625
81.52,7713.1875,10069.4375
81.54,7713.0625,10069.1875
81.56,7713.125,10069.0
81.58,7712.6875,10068.75
81.60000000000001,7713.3125,10068.8125
81.62,7713.0625,10068.6875
81.64,7712.9375,10068.4375
81.66,7712.875,10068.25
81.68,7712.625,10068.25
81.7,7712.375,10067.8125
81.72,7712.3125,10067.625
81.74,7712.625,10067.8125
81.76,7712.625,10067.6875
81.78,7712.5625,10068.25
81.8,7712.625,10068.4375
81.82000000000001,7712.75,10068.5
81.84,7712.5,10068.5625
81.86,7712.625,10068.625
81.88,7712.875,10069.0
81.9,7712.8125,10069.0625
81.92,7712.9375,10069.3125
81.94,7713.1875,10070.125
81.96000000000001,7713.125,10069.8125
81.98,7713.25,10070.0
82.0,7713.25,10069.8125
82.02,7713.0625,10070.125
82.04,7713.3125,10070.3125
82.06,7713.3125,10070.375
82.08,7713.5625,10071.125
82.10000000000001,7713.5,10070.9375
82.12,7713.1875,10071.1875
82.14,7713.4375,10071.4375
82.16,7713.3125,10071.25
82.18,7713.25,10071.5
82.2,7713.125,10071.1875
82.22,7713.0,10070.5
82.24,7712.6875,10069.375
82.26,7712.25,10068.5625
82.28,7712.0,10067.8125
82.3,7711.875,10067.625
82.32000000000001,7711.875,10066.5
82.34,7711.25,10065.75
82.36,7711.25,10064.9375
82.38,7710.875,10064.625
82.4,7710.625,10062.9375
82.42,7710.25,10062.3125
82.44,7710.4375,10062.0
82.46000000000001,7709.8125,10061.8125
82.48,7709.4375,10061.25
82.5,7709.75,10061.25
82.52,7709.8125,10061.3125
82.54,7709.375,10060.6875
82.56,7709.25,10060.125
82.58,7708.875,10059.875
82.60000000000001,7708.75,10059.1875
82.62,7708.6875,10059.0625
82.64,7708.625,10059.0625
82.66,7708.875,10058.625
82.68,7708.4375,10058.625
82.7,7708.4375,10058.4375
82.72,7708.9375,10058.5
82.74,7709.0625,10058.8125
82.76,7709.0,10059.125
82.78,7709.0,10059.3125
82.8,7709.125,10059.5625
82.82000000000001,7709.125,10059.6875
82.84,7709.625,10059.9375
82.86,7709.875,10060.6875
82.88,7709.75,10060.8125
82.9,7709.75,10061.3125
82.92,7709.625,10061.75
82.94,7710.375,10062.0
82.96000000000001,7710.3125,10062.625
82.98,7710.375,10063.0625
83.0,7711.0,10063.625
83.02,7711.0625,10064.5625
83.04,7711.5625,10065.125
83.06,7712.0,10065.5625
83.08,7712.0,10066.1875
83.10000000000001,7712.375,10067.0625
83.12,7712.875,10067.8125
83.14,7712.9375,10068.4375
83.16,7713.1875,10069.25
83.18,7713.375,10069.9375
83.2,7713.8125,10070.5
83.22,7714.0,10071.375
83.24,7714.5,10072.1875
83.26,7714.8125,10072.9375
83.28,7715.25,10073.8125
83.3,7715.875,10074.75
83.32000000000001,7716.0625,10075.8125
83.34,7716.3125,10076.8125
83.36,7716.875,10077.75
83.38,7717.125,10078.625
83.4,7717.375,10079.3125
83.42,7717.5625,10080.3125
83.44,7718.25,10081.3125
83.46000000000001,7718.5625,10082.1875
83.48,7719.0,10083.5
83.5,7719.8125,10084.625
83.52,7719.6875,10084.9375
83.54,7720.0625,10085.8125
83.56,7720.3125,10085.8125
83.58,7720.125,10086.1875
83.60000000000001,7720.375,10086.875
83.62,7720.375,10086.6875
83.64,7720.5,10086.8125
83.66,7720.75,10086.75
83.68,7720.9375,10087.625
83.7,7721.0625,10088.625
83.72,7721.625,10088.3125
83.74,7721.625,10088.375
83.76,7721.625,10088.4375
83.78,7721.8125,10088.0625
83.8,7721.5,10088.1875
83.82000000000001,7721.8125,10088.25
83.84,7722.0625,10088.625
83.86,7722.1875,10088.6875
83.88,7722.0,10089.3125
83.9,7722.4375,10089.4375
83.92,7722.125,10089.3125
83.94,7722.1875,10089.125
83.96000000000001,7722.0,10088.9375
83.98,7721.5625,10088.0
84.0,7721.6875,10088.25
84.02,7721.375,10087.9375
84.04,7721.875,10087.6875
84.06,7721.625,10087.6875
84.08,7721.75,10087.4375
84.10000000000001,7721.375,10087.5
84.12,7721.0,10087.125
84.14,7721.125,10087.1875
84.16,7721.25,10087.1875
84.18,7720.9375,10086.9375
84.2,7720.875,10086.875
84.22,7721.125,10086.875
84.24,7720.8125,10086.6875
84.26,7720.875,10086.5625
84.28,7720.875,10085.875
84.3,7720.8125,10085.9375
84.32000000000001,7720.75,10085.4375
84.34,7720.75,10086.0
84.36,7720.4375,10085.4375
84.38,7720.3125,10085.375
84.4,7719.875,10084.75
84.42,7719.75,10084.875
84.44,7719.8125,10084.9375
84.46000000000001,7719.6875,10084.625
84.48,7719.875,10084.625
84.5,7719.4375,10083.6875
84.52,7719.1875,10082.625
84.54,7719.125,10082.6875
84.56,7718.875,10082.3125
84.58,7718.625,10081.9375
84.60000000000001,7718.4375,10080.9375
84.62,7717.8125,10080.0625
84.64,7717.25,10079.3125
84.66,7717.1875,10078.375
84.68,7716.875,10077.6875
84.7,7716.625,10077.0
84.72,7716.3125,10076.375
84.74,7716.0,10074.9375
84.76,7715.625,10073.9375
84.78,7715.5,10073.375
84.8,7714.75,10072.5625
84.82000000000001,7714.375,10071.8125
84.84,7714.125,10071.3125
84.86,7714.0625,10071.1875
84.88,7714.1875,10070.875
84.9,7714.1875,10070.8125
84.92,7714.125,10070.1875
84.94,7713.625,10069.625
84.96000000000001,7713.25,10069.375
84.98,7713.4375,10069.125
85.0,7713.25,10068.875
85.02,7713.0625,10067.8125
85.04,7713.0625,10067.9375
85.06,7713.0625,10067.6875
85.08,7713.6875,10067.8125
85.10000000000001,7713.0,10067.6875
85.12,7713.125,10067.625
85.14,7713.3125,10068.1875
85.16,7713.5,10068.6875
85.18,7713.5625,10068.4375
85.2,7713.4375,10068.5625
85.22,7713.625,10068.8125
85.24,7713.625,10068.5625
85.26,7713.75,10068.875
85.28,7714.125,10069.375
85.3,7714.0,10069.375
85.32000000000001,7713.8125,10069.6875
85.34,7713.875,10069.625
85.36,7714.125,10070.125
85.38,7714.1875,10070.25
85.4,7714.375,10070.75
85.42,7714.5625,10070.875
85.44,7714.5,10071.0
85.46000000000001,7714.5,10071.625
85.48,7714.5625,10071.6875
85.5,7714.8125,10071.9375
85.52,7714.9375,10072.0625
85.54,7715.1875,10072.625
85.56,7715.125,10072.8125
85.58,7715.1875,10073.125
85.60000000000001,7715.5,10073.25
85.62,7715.5,10073.25
85.64,7715.5625,10073.25
85.66,7715.125,10073.5625
85.68,7715.4375,10073.0
85.7,7715.125,10072.5625
85.72,7714.5,10071.375
85.74,7714.3125,10070.75
85.76,7714.25,10070.25
85.78,7713.75,10069.8125
85.8,7713.75,10069.3125
85.82000000000001,7713.625,10068.4375
85.84,7713.625,10067.75
85.86,7713.125,10067.1875
85.88,7712.9375,10066.3125
85.9,7712.875,10065.75
85.92,7712.375,10065.0625
85.94,7712.375,10065.1875
85.96000000000001,7712.8125,10065.3125
85.98,7712.5,10065.125
86.0,7712.75,10064.9375
86.02,7711.9375,10064.3125
86.04,7711.875,10064.125
86.06,7711.4375,10063.6875
86.08,7711.375,10063.0625
86.10000000000001,7711.1875,10062.5
86.12,7711.25,10062.875
86.14,7711.375,10062.5625
86.16,7711.125,10062.625
86.18,7711.375,10062.75
86.2,7711.4375,10062.5
86.22,7711.3125,10062.25
86.24,7711.3125,10061.9375
86.26,7711.1875,10062.0625
86.28,7711.1875,10061.8125
86.3,7710.9375,10061.6875
86.32000000000001,7711.125,10062.125
86.34,7710.875,10062.125
86.36,7711.25,10062.0625
86.38,7711.125,10061.9375
86.4,7711.375,10062.6875
86.42,7710.9375,10062.0625
86.44,7711.1875,10062.625
86.46000000000001,7711.4375,10062.75
86.48,7711.3125,10063.3125
86.5,7711.3125,10063.0625
86.52,7711.5,10063.4375
86.54,7711.4375,10063.3125
86.56,7711.25,10063.25
86.58,7711.4375,10063.5
86.60000000000001,7711.625,10063.875
86.62,7711.5,10063.625
86.64,7711.6875,10063.75
86.66,7711.8125,10064.5
86.68,7711.9375,10064.375
86.7,7712.0625,10064.4375
86.72,7711.75,10064.1875
86.74,7711.5,10063.5625
86.76,7711.375,10063.0
86.78,7711.625,10062.75
86.8,7711.875,10062.75
86.82000000000001,7711.875,10062.75
86.84,7711.375,10062.4375
86.86,7711.1875,10061.5625
86.88,7711.0,10061.0625
86.9,7711.3125,10061.8125
86.92,7711.0625,10061.25
86.94,7711.0625,10061.3125
86.96000000000001,7711.4375,10061.6875
86.98,7711.5,10062.4375
87.0,7711.5625,10062.5625
87.02,7711.375,10062.8125
87.04,7711.4375,10062.6875
87.06,7711.75,10063.125
87.08,7711.9375,10063.3125
87.10000000000001,7711.9375,10063.0
87.12,7712.3125,10063.5625
87.14,7712.375,10064.3125
87.16,7712.6875,10064.6875
87.18,7712.75,10065.125
87.2,7712.9375,10065.625
87.22,7713.3125,10065.625
87.24,7713.4375,10066.5
87.26,7713.25,10066.8125
87.28,7713.8125,10067.75
87.3,7714.5,10068.875
87.32000000000001,7714.875,10069.625
87.34,7715.0,10070.0625
87.36,7715.25,10070.625
87.38,7715.75,10072.1875
87.4,7715.6875,10072.625
87.42,7716.4375,10073.6875
87.44,7716.8125,10074.625
87.46000000000001,7717.125,10075.375
87.48,7717.375,10076.3125
87.5,7717.6875,10077.3125
87.52,7718.0,10077.9375
87.54,7718.25,10079.0
87.56,7718.5,10079.8125
87.58,7719.25,10081.0625
87.60000000000001,7719.6875,10081.8125
87.62,7719.625,10082.4375
87.64,7720.125,10083.0625
87.66,7720.375,10084.25
87.68,7721.0,10085.9375
87.7,7721.4375,10086.75
87.72,7721.875,10088.25
87.74,7722.25,10089.125
87.76,7722.5,10090.1875
87.78,7723.0625,10091.375
87.8,7723.8125,10092.6875
87.82000000000001,7724.0,10093.9375
87.84,7724.25,10094.875
87.86,7725.125,10095.75
87.88,7725.25,10097.25
87.9,7725.9375,10098.5625
87.92,7726.625,10099.75
87.94,7726.75,10101.0
87.96000000000001,7727.4375,10101.5625
87.98,7727.625,10102.5625
88.0,7728.1875,10103.8125
88.02,7728.5,10105.125
88.04,7728.875,10105.4375
88.06,7729.0625,10106.625
88.08,7729.3125,10107.4375
88.10000000000001,7729.0,10107.375
88.12,7729.125,10107.4375
88.14,7729.3125,10107.8125
88.16,7729.75,10108.9375
88.18,7729.5,10109.125
88.2,7729.5,10109.0
88.22,7729.6875,10108.875
88.24,7729.75,10109.9375
88.26,7730.3125,10110.4375
88.28,7730.0625,10110.125
88.3,7729.75,10110.25
88.32000000000001,7730.125,10109.3125
88.34,7729.625,10109.9375
88.36,7729.8125,10109.6875
88.38,7729.6875,10109.75
88.4,7729.75,10109.875
88.42,7730.0,10110.4375
88.44,7729.875,10110.4375
88.46000000000001,7729.875,10110.5625
88.48,7729.75,10110.8125
88.5,7729.6875,10110.875
88.52,7730.0,10110.625
88.54,7729.875,10110.75
88.56,7729.4375,10110.4375
88.58,7729.375,10109.9375
88.60000000000001,7729.1875,10109.8125
88.62,7728.9375,10109.625
88.64,7728.9375,10109.3125
88.66,7728.875,10109.25
88.68,7728.8125,10108.9375
88.7,7728.6875,10109.0
88.72,7728.25,10108.3125
88.74,7728.25,10108.25
88.76,7728.25,10107.75
88.78,7728.375,10108.1875
88.8,7728.125,10107.4375
88.82000000000001,7728.25,10107.4375
88.84,7727.8125,10107.0625
88.86,7727.875,10107.25
88.88,7727.6875,10106.625
88.9,7727.4375,10107.1875
88.92,7727.125,10106.3125
88.94,7727.0,10106.5625
88.96000000000001,7726.875,10105.875
88.98,7726.8125,10105.875
89.0,7726.75,10106.0625
89.02,7727.0,10106.125
89.04,7726.75,10106.0
89.06,7726.6875,10106.0625
89.08,7726.5625,10105.75
89.10000000000001,7726.375,10105.875
89.12,7726.0625,10105.75
89.14,7725.9375,10105.375
89.16,7726.125,10105.5
89.18,7725.75,10105.25
89.2,7725.875,10105.125
89.22,7725.75,10105.25
89.24,7725.75,10105.0625
89.26,7725.5625,10105.0
89.28,7725.3125,10105.125
89.3,7725.125,10104.6875
89.32000000000001,7725.3125,10104.5625
89.34,7724.875,10104.6875
89.36,7724.9375,10104.625
89.38,7725.0625,10104.0
89.4,7724.8125,10104.1875
89.42,7724.75,10104.75
89.44,7724.4375,10104.3125
89.46000000000001,7724.75,10103.8125
89.48,7724.125,10103.75
89.5,7724.1875,10103.6875
89.52,7723.875,10102.875
89.54,7723.0625,10101.625
89.56,7722.9375,10101.1875
89.58,7722.9375,10100.5625
89.60000000000001,7722.5625,10099.6875
89.62,7722.4375,10099.4375
89.64,7722.1875,10098.5
89.66,7722.1875,10097.625
89.68,7721.5625,10097.125
89.7,7721.125,10096.1875
89.72,7720.5625,10095.1875
89.74,7720.4375,10094.3125
89.76,7720.0,10093.5
89.78,7719.8125,10093.375
89.8,7719.875,10092.875
89.82000000000001,7719.8125,10092.75
89.84,7719.5625,10092.0
89.86,7719.625,10092.0
89.88,7719.375,10091.125
89.9,7718.625,10090.4375
89.92,7718.3125,10089.5
89.94,7718.375,10089.4375
89.96000000000001,7717.875,10088.6875
89.98,7717.5625,10088.3125
90.0,7717.4375,10087.3125
90.02,7717.1875,10087.125
90.04,7717.0625,10086.375
90.06,7716.875,10086.3125
90.08,7716.625,10086.0625
90.10000000000001,7716.5625,10085.5625
90.12,7716.4375,10085.8125
90.14,7716.4375,10085.0
90.16,7716.375,10085.25
90.18,7716.375,10085.1875
90.2,7715.9375,10085.0625
90.22,7715.875,10085.0
90.24,7716.0625,10084.5625
90.26,7715.6875,10084.25
90.28,7715.3125,10084.0625
90.3,7715.25,10083.4375
90.32000000000001,7715.1875,10084.1875
90.34,7715.3125,10084.125
90.36,7715.1875,10083.875
90.38,7715.125,10083.875
90.4,7715.1875,10083.9375
90.42,7715.125,10084.125
90.44,7715.0625,10083.9375
90.46000000000001,7714.8125,10083.75
90.48,7715.0625,10083.8125
90.5,7714.8125,10083.8125
90.52,7714.8125,10083.6875
90.54,7714.6875,10083.4375
90.56,7714.875,10084.125
90.58,7715.0625,10083.9375
90.60000000000001,7714.9375,10084.4375
90.62,7714.9375,10084.0625
90.64,7714.8125,10084.5
90.66,7714.8125,10084.3125
90.68,7714.75,10084.5
90.7,7714.875,10085.1875
90.72,7715.0,10085.5
90.74,7715.0625,10085.625
90.76,7715.1875,10085.9375
90.78,7715.25,10086.1875
